0.0160415	0.0130181	0.527329	
-0.016407	0.0132598	0.527329	
0.0465813	0.0131644	0.527329	
0.00777033	0.013069	0.527329	
-0.0132257	0.0129863	0.527329	
0.0109516	0.0130053	0.527329	
0.0230402	0.013131	0.527329	
0.00904282	0.0129846	0.527329	
-0.0214969	0.012921	0.527329	
0.00140789	0.0130674	0.527329	
0.0313114	0.0131866	0.527329	
0.0115878	0.0130339	0.527329	
0.00967907	0.0128049	0.527329	
0.00840658	0.0129003	0.527329	
0.0230402	0.0131103	1.08832	
0.0294027	0.0128876	1.08832	
-0.000500848	0.0129194	1.08832	
0.0160415	0.0123659	1.08832	
0.0268577	0.012474	1.08832	
0.00395287	0.0126904	1.08832	
0.0217677	0.0122768	1.08832	
-0.0240419	0.0123404	1.08832	
0.0154053	0.0121814	1.08832	
0.0408551	0.0121368	1.08832	
-0.000500848	0.0121623	1.08832	
-0.0234057	0.012245	0.527329	
0.0134965	0.0122513	0.527329	
0.0472175	0.0122306	0.527329	
0.0306751	0.0118807	0.527329	
-0.0488555	0.0122434	0.527329	
0.0351289	0.0120652	0.527329	
0.0325839	0.0122354	0.527329	
0.00268038	0.0122099	0.527329	
-0.011317	0.0123817	0.527329	
-0.00559081	0.0124708	0.527329	
0.0338564	0.012299	1.08832	
-0.00177334	0.0124899	1.08832	
-0.00431832	0.012579	1.08832	
0.000771642	0.0125344	1.08832	
0.0408551	0.012299	1.08832	
0.0192227	0.0122481	1.08832	
0.00395287	0.0121972	1.08832	
0.00140789	0.0120891	1.08832	
0.0434	0.0120445	1.6493	
0.0160415	0.0119427	1.6493	
-0.00113709	0.0118664	1.6493	
-0.0106808	0.0118346	1.6493	
0.0236765	0.0117391	1.6493	
0.0408551	0.0117264	1.6493	
0.00458911	0.0115546	1.6493	
-0.0227694	0.0115483	1.6493	
0.0166778	0.0116055	1.6493	
0.0554887	0.0115944	1.6493	
-0.016407	0.0117916	1.6493	
-0.0132257	0.0117535	1.6493	
0.0154053	0.0115817	1.6493	
0.0472175	0.0115928	1.08832	
-0.0291319	0.0119236	1.6493	
-0.0119533	0.0118155	1.6493	
0.012224	0.0118218	1.6493	
0.0364014	0.0118028	1.6493	
0.00140789	0.0118727	1.6493	
0.000771642	0.0116628	1.6493	
-0.0068633	0.0117709	1.6493	
0.0465813	0.0117137	1.6493	
0.0217677	0.0115864	1.6493	
-0.00113709	0.0116055	1.6493	
0.00649784	0.011491	1.6493	
0.0446725	0.0114783	1.6493	
0.0249489	0.0114655	1.6493	
0.0166778	0.011281	1.6493	
0.00204413	0.0111601	1.6493	
0.00331662	0.0113447	1.6493	
0.05358	0.0112508	2.21029	
0.0109516	0.0114862	2.21029	
-0.0418568	0.0117662	2.21029	
0.0185865	0.0115371	2.21029	
0.0523075	0.011437	2.21029	
-0.0119533	0.011526	2.21029	
-0.0208607	0.0116469	2.21029	
0.0115878	0.0115388	2.21029	
0.0351289	0.0115769	2.21029	
0.0179503	0.0113033	1.6493	
-0.0234057	0.0113988	1.6493	
0.0287664	0.0114433	1.6493	
0.00713409	0.0115133	1.6493	
0.0211315	0.0116024	1.6493	
-0.00622705	0.0115388	1.6493	
-0.00113709	0.0117614	1.6493	
0.0319476	0.0118123	1.6493	
0.0319476	0.0115578	1.6493	
0.0185865	0.0113224	1.6493	
-0.0552179	0.0116851	1.6493	
0.074576	0.0117758	1.6493	
0.0351289	0.0117694	1.6493	
-0.0234057	0.0120176	2.21029	
-0.0195882	0.0121066	2.21029	
0.00967907	0.0122148	2.21029	
0.0249489	0.0123866	2.21029	
0.00904282	0.0123166	2.21029	
-0.0431293	0.0129083	2.21029	
0.00458911	0.0126983	2.21029	
0.0453088	0.0127111	2.21029	
-0.000500848	0.0127938	2.21029	
-0.0132257	0.0127938	2.21029	
0.00904282	0.0128129	2.21029	
0.0357651	0.0126856	2.21029	
-0.00304583	0.0128065	2.21029	
-0.0151345	0.0127429	2.21029	
0.00777033	0.0126792	2.21029	
0.0395826	0.0125965	2.21029	
0.00331662	0.0126792	2.21029	
0.000135397	0.0127747	2.21029	
-0.0151345	0.0130101	2.21029	
0.0313114	0.0129274	2.21029	
0.0255852	0.0129656	2.21029	
-0.00559081	0.0130165	2.21029	
-0.016407	0.0133409	2.21029	
0.0249489	0.01336	2.21029	
0.0319476	0.0130801	2.77128	
-0.0132257	0.01343	2.77128	
-0.00749954	0.0132646	2.77128	
0.0217677	0.013201	2.77128	
0.0472175	0.0131373	2.21029	
-0.0119533	0.0132519	2.21029	
-0.0221332	0.0132391	2.21029	
0.118477	0.0135589	2.21029	
-0.0259506	0.0142906	2.21029	
-0.00304583	0.0146278	2.21029	
-0.0221332	0.0143605	2.21029	
0.0179503	0.0145323	2.21029	
0.0395826	0.0144623	2.77128	
0.000771642	0.0144814	2.77128	
-0.045038	0.0148186	2.77128	
-0.0221332	0.0149841	2.77128	
0.0281302	0.0150413	2.77128	
0.0204952	0.0148186	2.77128	
-0.00940828	0.0148695	2.77128	
-0.00113709	0.0148886	2.77128	
0.0274939	0.0150222	2.77128	
0.0179503	0.015035	2.77128	
-0.00749954	0.0151495	2.77128	
-0.0170432	0.015334	2.77128	
0.0281302	0.0154867	2.77128	
0.0268577	0.0153785	2.77128	
-0.00877203	0.0154549	2.77128	
-0.00622705	0.0154103	2.77128	
-0.00749954	0.0157221	2.77128	
0.0440363	0.0156903	2.77128	
0.00268038	0.0157094	2.77128	
-0.0202244	0.0156839	2.77128	
0.00904282	0.0157603	2.77128	
0.0185865	0.0160195	2.77128	
0.0154053	0.0157014	2.77128	
0.000771642	0.0155614	2.77128	
-0.0284956	0.0160004	2.77128	
0.0548525	0.0160211	2.77128	
0.0109516	0.0156203	2.77128	
-0.0176795	0.0156776	2.77128	
-0.00431832	0.015843	2.77128	
0.0287664	0.0159193	2.77128	
0.0192227	0.0157412	2.77128	
-0.0170432	0.0159193	2.77128	
-0.00749954	0.0159257	2.77128	
0.0434	0.0159575	2.77128	
0.0192227	0.015983	2.77128	
0.000135397	0.0159702	3.33227	
-0.00749954	0.0161102	3.33227	
0.0383101	0.0161738	3.33227	
0.0580337	0.0160037	3.33227	
-0.00113709	0.0161818	3.33227	
-0.0310406	0.0165127	3.33227	
0.0491262	0.0160546	3.33227	
0.0618511	0.0161373	3.33227	
-0.0265869	0.0165127	3.33227	
-0.0348581	0.0164427	3.33227	
0.00522536	0.0165763	3.33227	
0.0395826	0.0166574	3.33227	
-0.0157707	0.0166956	3.33227	
-0.0265869	0.0167528	3.33227	
-0.0119533	0.0169882	3.33227	
0.0421276	0.0169182	3.33227	
0.00204413	0.0170773	3.33227	
-0.0227694	0.0170709	3.33227	
0.00204413	0.0173382	3.33227	
0.0370376	0.0170391	3.33227	
0.014769	0.0171028	3.33227	
0.0211315	0.0168292	3.33227	
-0.0431293	0.0172491	3.33227	
0.0236765	0.0173318	3.33227	
0.0465813	0.0171855	3.33227	
-0.011317	0.0174845	3.33227	
-0.0195882	0.0171282	3.33227	
0.0103153	0.0172793	3.33227	
0.0389463	0.0172411	3.33227	
-0.00113709	0.0170184	3.89326	
-0.0157707	0.0169803	3.89326	
0.0103153	0.0169739	3.89326	
0.0561249	0.0167846	3.89326	
0.00967907	0.0167783	3.89326	
0.0115878	0.0162311	3.89326	
-0.00749954	0.016352	3.89326	
0.0364014	0.0164411	3.33227	
0.022404	0.016212	3.33227	
-0.00622705	0.016142	3.33227	
-0.00368207	0.0162693	3.89326	
0.045945	0.0161675	3.89326	
-0.00177334	0.0161548	3.89326	
-0.0348581	0.016352	3.89326	
0.0192227	0.0162375	3.89326	
0.0128603	0.0165047	4.45424	
0.0128603	0.0164093	4.45424	
-0.00177334	0.0164283	4.45424	
-0.0208607	0.0164856	4.45424	
0.0262214	0.0165365	4.45424	
0.0376738	0.0164156	4.45424	
-0.0208607	0.0165683	4.45424	
-0.00749954	0.0164792	4.45424	
0.0465813	0.0162629	3.89326	
0.0236765	0.0163456	3.89326	
-0.00495456	0.0162629	3.89326	
-0.013862	0.0163265	3.89326	
0.0141328	0.0164029	4.45424	
0.0300389	0.0165747	4.45424	
-0.0144982	0.0166001	4.45424	
-0.016407	0.0165429	3.89326	
0.00649784	0.0162931	3.89326	
0.0344926	0.0156887	3.89326	
-0.00177334	0.015676	3.89326	
-0.0202244	0.0156569	3.89326	
0.00840658	0.0157523	3.89326	
0.0344926	0.0158032	3.89326	
0.00522536	0.0157587	4.45424	
-0.0195882	0.0155042	4.45424	
0.00522536	0.0152306	4.45424	
0.0472175	0.0150397	4.45424	
0.00649784	0.0151797	4.45424	
-0.000500848	0.0150906	4.45424	
-0.0125895	0.0152051	4.45424	
0.0478538	0.0150015	4.45424	
0.00840658	0.015097	4.45424	
-0.00940828	0.0151161	5.01523	
-0.00368207	0.0149825	5.01523	
0.0306751	0.014957	5.01523	
-0.00304583	0.015256	5.01523	
0.00204413	0.0151479	5.01523	
-0.0297681	0.0153833	5.01523	
0.0243127	0.0150652	5.01523	
0.0204952	0.0153006	5.01523	
0.00522536	0.0152751	5.01523	
-0.0272231	0.0153451	5.01523	
0.0115878	0.0153197	5.01523	
0.0427638	0.0150779	5.01523	
0.0103153	0.0151288	5.01523	
-0.0144982	0.0152815	5.01523	
0.0179503	0.014817	5.01523	
0.0465813	0.0148027	5.01523	
-0.00431832	0.0149554	4.45424	
-0.0323131	0.0151017	4.45424	
0.0128603	0.0149299	4.45424	
0.0408551	0.0148091	4.45424	
-0.00240958	0.0150254	4.45424	
-0.0195882	0.0150508	4.45424	
-0.0119533	0.0150954	5.01523	
0.0319476	0.0152099	5.01523	
0.0185865	0.0152162	5.01523	
-0.0106808	0.0153244	5.01523	
-0.00877203	0.0153371	5.01523	
0.0364014	0.0153562	5.01523	
0.0204952	0.0155709	5.01523	
-0.00495456	0.0156091	5.01523	
-0.0253144	0.0155518	5.01523	
0.022404	0.0158191	5.01523	
0.0624874	0.0158254	5.01523	
-0.0297681	0.0158572	5.01523	
-0.0208607	0.0157173	5.01523	
0.0414913	0.0153546	5.01523	
0.0249489	0.0155009	5.01523	
0.00204413	0.0153228	5.01523	
-0.00940828	0.015151	5.01523	
0.00395287	0.014992	5.01523	
0.0434	0.0149792	5.57622	
-0.00304583	0.0150301	5.57622	
-0.0170432	0.0149729	5.57622	
-0.000500848	0.0149983	5.57622	
0.0478538	0.0148902	5.57622	
-0.00622705	0.0151001	5.57622	
-0.00813579	0.0153928	5.57622	
-0.0132257	0.0150938	5.57622	
0.0300389	0.0150301	5.57622	
0.0274939	0.015221	5.57622	
-0.00749954	0.0151828	5.57622	
-0.0234057	0.015221	5.57622	
0.0376738	0.0149474	5.57622	
0.0268577	0.0150683	5.57622	
-0.00113709	0.0150683	5.57622	
-0.016407	0.0150747	5.57622	
-0.000500848	0.0151828	5.57622	
0.045945	0.0151621	5.57622	
0.0243127	0.0150158	5.57622	
-0.0278594	0.0154103	5.57622	
0.0344926	0.0149903	5.57622	
0.0243127	0.0151112	6.13721	
-0.016407	0.0154993	6.13721	
-0.0119533	0.0155566	6.13721	
0.0166778	0.015353	6.13721	
0.0306751	0.0155057	6.13721	
0.00522536	0.0154357	6.13721	
-0.0297681	0.0153848	6.13721	
-0.00749954	0.015652	6.13721	
0.0344926	0.0154357	6.13721	
0.0128603	0.0154357	6.13721	
-0.0151345	0.0155693	6.13721	
0.00777033	0.015283	6.13721	
0.0325839	0.0152194	6.6982	
-0.0265869	0.015862	6.6982	
0.0128603	0.0155248	6.6982	
-0.0189519	0.0156393	6.6982	
0.0160415	0.0159447	6.6982	
0.019859	0.0159829	6.6982	
-0.00622705	0.0159956	6.6982	
-0.016407	0.0160211	6.6982	
0.0204952	0.0159574	6.6982	
0.0478538	0.0157793	6.6982	
0.012224	0.0155121	6.6982	
-0.0291319	0.0156393	6.6982	
0.0262214	0.0154421	6.6982	
0.0383101	0.0154039	7.25918	
0.0166778	0.0152194	7.25918	
-0.00877203	0.0151049	7.25918	
-0.00495456	0.0152385	7.25918	
0.0294027	0.0152894	7.25918	
-0.00431832	0.0153848	7.25918	
-0.00749954	0.0152639	7.25918	
0.0255852	0.0150603	7.25918	
0.0351289	0.0151812	7.25918	
-0.00559081	0.0153021	6.6982	
-0.0132257	0.0154293	6.6982	
0.0134965	0.0151685	7.25918	
0.045945	0.0151876	7.25918	
0.0402188	0.0148695	7.25918	
-0.0183157	0.0149585	7.25918	
-0.0335856	0.0152576	7.25918	
0.0669411	0.0152337	7.25918	
0.0287664	0.0149156	7.25918	
-0.0208607	0.0151446	7.25918	
-0.0170432	0.0150174	7.25918	
0.0383101	0.0148774	6.6982	
0.0427638	0.0146547	6.6982	
-0.0278594	0.0149856	6.6982	
-0.0348581	0.0150619	6.6982	
0.0523075	0.0147009	6.6982	
0.0294027	0.0148345	6.6982	
-0.0100445	0.0150381	6.6982	
-0.0170432	0.0150636	6.6982	
0.000771642	0.0152353	6.6982	
0.0274939	0.0154262	6.6982	
0.000771642	0.0153753	6.6982	
-0.0195882	0.0152481	6.6982	
-0.0068633	0.0154453	6.6982	
0.0319476	0.0155344	7.25918	
0.00458911	0.0154644	7.25918	
-0.0151345	0.0154198	7.25918	
-0.00877203	0.015388	7.25918	
0.0427638	0.0152799	7.25918	
0.0134965	0.0153308	7.25918	
0.00140789	0.0152099	7.25918	
-0.00368207	0.015159	7.25918	
0.0281302	0.0152417	7.25918	
0.022404	0.0152226	7.25918	
0.000135397	0.0151717	7.25918	
-0.0132257	0.0150508	7.25918	
0.0217677	0.0150572	7.25918	
0.0421276	0.015011	7.25918	
-0.0100445	0.0148138	7.25918	
-0.0195882	0.0148011	7.25918	
0.0249489	0.0149665	7.25918	
0.0739398	0.0149554	7.25918	
-0.0272231	0.0152481	7.25918	
-0.0176795	0.0153308	7.25918	
0.0166778	0.0152035	7.25918	
0.051035	0.0151479	7.25918	
-0.0183157	0.0153006	7.25918	
-0.0367668	0.0154978	7.25918	
-0.00813579	0.0155742	7.25918	
0.0491262	0.0155614	7.25918	
0.00395287	0.0154596	7.25918	
-0.0265869	0.0156441	7.25918	
0.00204413	0.0154914	7.25918	
0.0408551	0.0153833	7.25918	
0.0268577	0.0153896	7.25918	
0.00777033	0.0152369	7.25918	
-0.00368207	0.0150397	7.25918	
0.0593062	0.0150095	7.25918	
0.017314	0.0151049	7.25918	
0.00522536	0.0150413	7.25918	
-0.0221332	0.0150986	7.25918	
0.0434	0.0146596	7.25918	
0.0453088	0.0146659	7.25918	
-0.00749954	0.0149841	7.25918	
-0.0234057	0.0149395	7.25918	
0.019859	0.0150859	7.25918	
0.0465813	0.0148632	7.25918	
-0.00177334	0.0147168	7.25918	
-0.0068633	0.0146659	7.25918	
0.0103153	0.0147296	7.25918	
0.0650324	0.0146866	7.25918	
0.0243127	0.0144958	7.25918	
-0.0348581	0.0145467	7.25918	
0.0344926	0.0141267	7.25918	
0.0580337	0.014052	7.25918	
0.0376738	0.0138039	7.25918	
0.00204413	0.0136321	7.25918	
-0.0284956	0.0139947	7.25918	
0.0593062	0.0139136	7.25918	
0.0306751	0.013341	7.25918	
0.00204413	0.0134492	7.25918	
-0.0202244	0.0134619	7.25918	
0.0230402	0.0133919	7.25918	
0.0332201	0.0132583	7.25918	
0.00140789	0.013182	7.25918	
-0.011317	0.0131311	7.25918	
0.0370376	0.0129656	7.25918	
0.0427638	0.0130165	7.25918	
0.0134965	0.0130038	7.25918	
-0.00813579	0.0127939	7.25918	
0.0268577	0.0127875	7.25918	
0.0440363	0.0127302	6.6982	
0.00840658	0.0128129	6.6982	
-0.011317	0.0128384	6.6982	
0.0115878	0.012673	6.6982	
0.0453088	0.0125139	7.25918	
0.014769	0.012323	7.25918	
-0.016407	0.0124121	7.25918	
0.0255852	0.0124121	7.25918	
0.05358	0.0122992	7.25918	
0.012224	0.012121	7.82017	
-0.00368207	0.0120256	7.82017	
0.0154053	0.0120065	7.82017	
0.04849	0.0119811	7.82017	
0.0166778	0.0122165	7.82017	
0.00140789	0.0120192	7.82017	
0.00649784	0.0116184	7.82017	
0.0370376	0.0115786	7.82017	
0.0383101	0.0114832	7.82017	
0.014769	0.0111269	7.82017	
0.00967907	0.0108597	7.82017	
0.0300389	0.0109424	7.82017	
0.0631236	0.0110013	7.82017	
-0.00813579	0.010804	7.82017	
-0.0119533	0.010575	7.82017	
0.0294027	0.0107579	7.82017	
0.0593062	0.010645	7.82017	
-0.011317	0.0106577	7.82017	
-0.0278594	0.0107658	7.82017	
0.0268577	0.010505	7.82017	
0.0554887	0.0103348	7.82017	
-0.00559081	0.0103984	7.82017	
-0.011317	0.0103157	7.82017	
0.0230402	0.0100167	7.82017	
0.0434	0.00990217	7.82017	
-0.00113709	0.00995943	7.82017	
-0.00495456	0.00985763	7.82017	
0.0134965	0.00963494	8.38116	
0.0319476	0.0097431	8.38116	
0.0230402	0.00964767	8.38116	
-0.00368207	0.00969857	8.38116	
0.00268038	0.00963494	8.38116	
0.0319476	0.00959677	8.38116	
0.0281302	0.00953951	8.38116	
0.0115878	0.00942498	8.38116	
0.00204413	0.00927228	8.38116	
0.014769	0.00934227	8.38116	
0.0300389	0.00946316	8.38116	
0.00777033	0.00928501	8.38116	
-0.0157707	0.00924683	8.38116	
0.0332201	0.00916412	8.38116	
0.0313114	0.00911161	8.38116	
0.0160415	0.00867896	8.38116	
-0.0246782	0.00874895	8.38116	
0.0192227	0.0087235	8.38116	
0.0440363	0.00877279	8.38116	
0.014769	0.00844194	8.38116	
-0.0176795	0.00825107	7.82017	
0.00204413	0.00814927	7.82017	
0.0395826	0.00824471	7.82017	
0.0115878	0.00816836	7.82017	
-0.0221332	0.00812382	7.82017	
0.00458911	0.00809837	7.82017	
0.04849	0.00802202	7.82017	
0.0236765	0.00805383	7.82017	
-0.0310406	0.00844194	7.82017	
0.0115878	0.00828924	7.82017	
0.0211315	0.00848487	7.82017	
0.0160415	0.00849759	7.82017	
0.00649784	0.00848487	7.82017	
-0.0278594	0.00854213	7.82017	
0.0217677	0.00875845	8.38116	
0.0236765	0.00897477	8.38116	
0.00522536	0.00884753	8.38116	
-0.00495456	0.00866301	8.38116	
0.00840658	0.00877754	8.38116	
0.0389463	0.00885389	8.38116	
0.0109516	0.00872664	8.38116	
-0.0234057	0.00889206	8.38116	
0.0058616	0.0089366	8.38116	
0.0713948	0.00900022	8.38116	
0.0255852	0.0089875	8.38116	
-0.0692153	0.00933107	8.38116	
0.012224	0.00955376	8.38116	
0.0726673	0.00970009	8.38116	
0.0058616	0.0100182	8.38116	
-0.0246782	0.0102854	8.38116	
-0.00368207	0.0100373	8.38116	
0.0446725	0.00999752	8.38116	
0.0109516	0.0101948	8.38116	
-0.0068633	0.0102838	8.38116	
-0.0068633	0.0101502	8.38116	
0.0332201	0.0100484	8.38116	
0.0453088	0.00992753	8.38116	
0.00268038	0.0099148	8.38116	
-0.042493	0.0102266	8.38116	
0.0465813	0.0101311	8.38116	
0.0344926	0.0102138	8.38116	
0.00458911	0.0103029	8.38116	
-0.0221332	0.0104429	8.38116	
0.0166778	0.0105447	8.94215	
0.0389463	0.0105956	8.94215	
0.00331662	0.0106465	8.94215	
-0.011317	0.0106465	8.94215	
0.0134965	0.0106274	8.94215	
0.0344926	0.0107356	8.94215	
0.00967907	0.0107865	8.94215	
-0.00559081	0.0106783	8.94215	
-0.000500848	0.0109392	8.94215	
0.0306751	0.0110966	8.94215	
0.00840658	0.0111348	8.94215	
0.00331662	0.0110648	8.94215	
-0.00559081	0.0112748	9.50314	
0.0268577	0.0114911	9.50314	
0.0217677	0.0114402	9.50314	
0.0058616	0.0113956	9.50314	
-0.00240958	0.0114847	9.50314	
0.0204952	0.0116501	9.50314	
0.0344926	0.0116883	9.50314	
0.000771642	0.0118283	9.50314	
-0.0151345	0.0120764	9.50314	
0.0204952	0.0121719	9.50314	
0.0332201	0.0122084	9.50314	
-0.00431832	0.0121702	9.50314	
-0.0151345	0.0122021	9.50314	
0.0185865	0.0123102	9.50314	
0.0243127	0.012474	9.50314	
0.00458911	0.012315	10.0641	
-0.00495456	0.0120859	10.0641	
0.012224	0.0122323	10.0641	
0.0516712	0.0121941	10.0641	
-0.00622705	0.0122004	10.0641	
-0.0227694	0.012315	10.0641	
0.0179503	0.0123659	10.0641	
0.0287664	0.0125122	10.0641	
-0.0100445	0.0126013	10.0641	
-0.0284956	0.0128367	10.0641	
-0.013862	0.0131103	10.6251	
0.022404	0.0132057	10.6251	
0.0115878	0.0133202	10.6251	
-0.00813579	0.0133648	10.6251	
-0.00877203	0.0134793	10.6251	
0.0306751	0.013492	10.6251	
0.0332201	0.0134411	10.0641	
0.000771642	0.0135493	10.0641	
-0.0208607	0.0137783	10.0641	
0.0236765	0.0136893	10.0641	
0.0421276	0.0135684	10.0641	
-0.00431832	0.0136893	10.0641	
-0.0304044	0.0138356	10.6251	
0.0058616	0.0141092	10.6251	
0.0389463	0.0140328	10.6251	
-0.000500848	0.0141983	10.6251	
-0.0253144	0.0142046	10.6251	
-0.00304583	0.0144273	11.1861	
0.0516712	0.0143844	11.1861	
0.00395287	0.0144925	11.1861	
-0.0208607	0.0145244	10.6251	
0.00649784	0.0144798	10.6251	
0.0338564	0.0145371	10.6251	
0.00395287	0.0146134	10.6251	
-0.0100445	0.0144925	10.6251	
0.00140789	0.0145244	10.6251	
0.0370376	0.0146389	10.6251	
0.0103153	0.0147725	10.6251	
0.00458911	0.0144162	10.6251	
-0.011317	0.0146452	10.6251	
0.0421276	0.0144353	10.6251	
0.0141328	0.0144544	10.6251	
-0.00113709	0.0145307	11.1861	
0.00840658	0.0141681	11.1861	
0.00458911	0.0143398	11.1861	
0.0364014	0.0142126	11.1861	
-0.00559081	0.0143208	11.1861	
-0.0259506	0.0145307	11.1861	
0.017314	0.0144416	11.1861	
0.0370376	0.0144607	11.1861	
-0.0119533	0.0146898	11.1861	
-0.0125895	0.0145816	11.1861	
0.00840658	0.0145562	11.1861	
0.022404	0.0146182	11.1861	
0.0109516	0.0147645	11.1861	
-0.0106808	0.0141792	11.1861	
0.0154053	0.0141474	11.1861	
0.0446725	0.013974	11.1861	
0.0179503	0.0138531	11.1861	
-0.00940828	0.0137004	11.1861	
-0.0189519	0.0138531	11.1861	
0.0357651	0.0139421	11.1861	
0.0204952	0.0138467	11.1861	
-0.00749954	0.0138531	11.1861	
-0.0342218	0.0141267	11.1861	
0.012224	0.0143366	11.1861	
0.0141328	0.0146484	11.7471	
-0.00431832	0.0147184	11.7471	
-0.0316768	0.0146102	11.7471	
0.0338564	0.0147375	11.7471	
0.0255852	0.0148265	11.7471	
-0.0151345	0.0150238	11.7471	
-0.0195882	0.0149983	11.7471	
0.04849	0.0146802	11.7471	
0.0828472	0.0148981	11.7471	
-0.00940828	0.0150254	11.7471	
0.00268038	0.0148854	12.3081	
0.0351289	0.0146691	12.3081	
0.0955721	0.0149697	12.3081	
-0.00177334	0.0150843	12.3081	
-0.0259506	0.0152878	12.3081	
-0.0234057	0.0155169	12.3081	
0.0357651	0.015466	12.3081	
-0.0278594	0.0158287	12.3081	
-0.0259506	0.0161213	12.3081	
-0.0361306	0.0164267	12.8691	
0.0141328	0.016554	12.8691	
0.0109516	0.0166621	12.8691	
0.0300389	0.0164204	12.8691	
0.0351289	0.016045	12.8691	
0.0624874	0.0158748	12.8691	
0.0803022	0.0160228	13.4301	
0.00140789	0.0160164	13.4301	
-0.0119533	0.0159846	13.4301	
0.0204952	0.0159846	13.4301	
0.0243127	0.0160737	13.991	
-0.0335856	0.0163663	13.991	
-0.0908476	0.0171235	13.991	
-0.0221332	0.0175307	13.991	
0.0103153	0.0176706	13.991	
-0.0214969	0.0179315	13.991	
-0.0068633	0.0179506	14.552	
0.00522536	0.0180206	14.552	
0.0764848	0.0182687	14.552	
-0.0393118	0.0185995	14.552	
0.00331662	0.0183387	14.552	
-0.0214969	0.0187332	15.113	
0.0593062	0.0186139	15.113	
-0.0253144	0.0187666	15.674	
-0.0278594	0.0187602	15.674	
-0.0208607	0.0188302	16.235	
0.0109516	0.0189447	16.235	
0.00967907	0.0189638	16.235	
-0.00495456	0.018932	16.796	
-0.0151345	0.0189956	16.796	
0.0236765	0.0190656	16.796	
0.0134965	0.0192629	17.357	
-0.0068633	0.0193392	17.357	
-0.00622705	0.0191929	17.357	
0.0402188	0.0190274	17.357	
0.0942996	0.0193917	17.918	
-0.0354943	0.0197035	17.918	
-0.0278594	0.019678	18.4789	
0.0408551	0.0193281	18.4789	
0.0624874	0.0193424	18.4789	
-0.0144982	0.0194824	19.0399	
-0.0265869	0.0194951	19.0399	
0.000135397	0.0194633	19.0399	
0.0255852	0.0196907	19.0399	
-0.00240958	0.0197544	19.6009	
-0.0151345	0.0196971	19.6009	
0.00967907	0.0196653	19.6009	
0.0332201	0.0196717	19.6009	
0.0115878	0.0195953	19.6009	
0.00331662	0.0194617	19.6009	
0.00458911	0.0194299	20.1619	
0.0446725	0.0193535	20.1619	
0.0249489	0.0192072	20.1619	
0.0058616	0.0191945	20.1619	
-0.00622705	0.0191436	20.7229	
0.0777573	0.0193424	20.7229	
0.150289	0.0199866	20.7229	
0.138837	0.0203636	20.7229	
0.084756	0.0202953	20.7229	
0.0911184	0.0202523	20.7229	
0.0873009	0.0204894	20.7229	
0.0306751	0.0201267	20.7229	
-0.0335856	0.0202031	20.7229	
-0.0622166	0.0209984	20.7229	
-0.0507642	0.0218764	20.7229	
-0.13284	0.0230852	20.7229	
-0.165288	0.0246122	20.7229	
-0.0781227	0.0254775	20.7229	
-0.0348581	0.0260501	20.7229	
0.00777033	0.026082	20.7229	
0.0561249	0.0255364	20.7229	
0.0306751	0.0253837	20.7229	
0.0192227	0.0256382	21.2839	
0.0879372	0.0256971	21.2839	
0.00458911	0.0255571	21.2839	
-0.0221332	0.0255889	21.8449	
0.0370376	0.0255762	21.8449	
0.0344926	0.0254362	22.4059	
-0.0940288	0.0263015	22.9668	
-0.0514004	0.0264733	23.5278	
0.0141328	0.0264542	23.5278	
0.0300389	0.0262951	24.0888	
-0.0526729	0.0267787	25.2108	
-0.0641253	0.0271032	25.7718	
-0.0253144	0.0276949	26.3328	
0.0306751	0.027644	26.8938	
-0.016407	0.0276567	26.8938	
-0.0335856	0.0277967	27.4548	
0.0154053	0.0281275	28.0157	
0.0892097	0.0281912	28.5767	
0.00331662	0.0280639	29.1377	
0.0758485	0.0278492	29.6987	
0.0962084	0.0281626	30.2597	
0.212641	0.0293333	30.8207	
0.1891	0.0302065	31.3817	
0.0930271	0.0298773	31.9427	
0.22473	0.0308905	32.5036	
0.0427638	0.0308205	33.0646	
-0.071124	0.0312532	33.6256	
0.084756	0.0308412	34.1866	
0.0548525	0.0300285	35.3086	
-0.152563	0.0316954	35.8696	
-0.0653978	0.0324589	36.4306	
-0.073669	0.033496	36.9915	
-0.139202	0.0352393	38.1135	
-0.0514004	0.0361284	38.6745	
-0.0520367	0.0368458	39.2355	
-0.0463105	0.037323	40.3575	
-0.0272231	0.0374757	40.9185	
-0.00940828	0.0377747	42.0404	
0.0446725	0.0375711	43.1624	
-0.0265869	0.0375011	44.2844	
0.012224	0.0364704	45.4064	
0.0109516	0.0361395	47.0893	
0.118477	0.0364275	48.7723	
0.0777573	0.0359901	50.4553	
0.077121	0.0356927	52.1382	
0.208824	0.0368331	53.8212	
0.0128603	0.0369397	56.0651	
-0.0946651	0.0374932	57.7481	
-0.00495456	0.0375759	59.9921	
0.0440363	0.0369206	61.675	
-0.0698515	0.0380261	63.919	
-0.171014	0.0394831	65.6019	
-0.110571	0.0403102	67.8459	
-0.0806677	0.0409082	69.5288	
0.0294027	0.0407237	71.7728	
-0.0265869	0.0410864	73.4558	
-0.0335856	0.0413727	75.6997	
0.0211315	0.04101	77.9437	
-0.0125895	0.0413727	80.1876	
0.0675773	0.0411834	82.4316	
0.0357651	0.0407572	84.6755	
-0.0100445	0.0407953	87.4805	
-0.0144982	0.0413425	89.7244	
0.120386	0.0416034	92.5294	
0.251452	0.0427629	95.3343	
0.164287	0.0431272	97.5782	
0.0211315	0.0433245	100.383	
0.161105	0.0443106	103.188	
-0.115025	0.0453159	105.993	
-0.039948	0.0454495	108.798	
-0.0653978	0.0461048	111.603	
-0.143656	0.0477973	114.969	
-0.129659	0.0490697	117.774	
-0.204099	0.0509594	120.018	
-0.0526729	0.0515829	122.823	
0.147108	0.0523862	125.628	
0.174466	0.0532467	128.433	
-0.116934	0.0544492	131.238	
0.117204	0.0546672	134.042	
0.224094	0.0563548	137.408	
0.0739398	0.0563437	140.774	
0.0154053	0.0562483	143.579	
-0.0895751	0.0570818	146.945	
-0.129022	0.0585944	150.872	
0.00649784	0.0580265	154.238	
-0.0838489	0.0584767	157.604	
-0.155108	0.0601802	160.97	
-0.0673066	0.0609421	164.897	
-0.0673066	0.0617421	168.263	
-0.0628528	0.0626774	171.629	
-0.0577629	0.0629192	174.995	
0.0491262	0.0618058	178.361	
0.112751	0.0614256	182.287	
0.206915	0.0611664	185.653	
0.131838	0.0598319	189.019	
-0.0393118	0.0594438	192.385	
0.0281302	0.0588139	195.751	
0.121022	0.0591018	199.117	
0.0675773	0.0592163	203.044	
0.0376738	0.0591463	206.41	
-0.00304583	0.059369	209.776	
0.103207	0.0595217	212.581	
-0.0965738	0.0605333	215.947	
-0.0240419	0.0605524	218.752	
-0.0316768	0.0612396	222.118	
0.0281302	0.0613032	224.923	
0.022404	0.0601389	227.727	
-0.0819402	0.0604443	230.532	
-0.00622705	0.0606479	233.337	
-0.109935	0.0620476	236.142	
-0.0526729	0.0620476	238.947	
0.0815747	0.0612221	241.752	
0.0523075	0.060492	244.557	
0.264177	0.0624406	247.923	
0.156015	0.0628366	251.289	
0.00840658	0.0624167	254.655	
0.207551	0.0636463	258.021	
0.345616	0.0662104	261.387	
-0.183103	0.0680745	265.314	
-0.0240419	0.0685565	269.241	
-0.0284956	0.0688794	273.167	
-0.0342218	0.0680952	277.094	
-0.114389	0.068348	281.021	
-0.0838489	0.0692563	284.948	
-0.0304044	0.068313	288.875	
-0.0793952	0.0695346	292.802	
-0.190738	0.0707307	297.29	
-0.127114	0.0721543	301.217	
0.119113	0.0727969	305.705	
-0.141111	0.0726824	310.193	
-0.180558	0.073834	314.681	
-0.206008	0.0751574	319.729	
-0.14302	0.0751956	325.339	
-0.0418568	0.0751001	330.949	
-0.00113709	0.0745911	336.559	
0.103843	0.0741665	342.73	
0.103843	0.0739327	349.462	
-0.0170432	0.074009	356.194	
0.114659	0.0746023	362.926	
0.0962084	0.0742985	370.218	
0.0631236	0.074052	376.95	
0.084756	0.0740091	384.243	
0.0911184	0.0737355	390.975	
-0.0272231	0.0742302	397.707	
-0.0170432	0.0746294	404.439	
0.0503987	0.0730451	411.171	
0.210096	0.0742747	417.902	
0.05358	0.0728639	424.073	
0.105116	0.0728655	430.244	
0.212641	0.0744322	435.854	
0.0364014	0.0733697	441.464	
-0.0991188	0.0726508	447.635	
0.0663049	0.0712081	452.684	
0.0427638	0.0699738	458.293	
-0.1532	0.0717998	463.903	
-0.0838489	0.0723724	469.513	
0.0503987	0.0715406	474.562	
-0.115025	0.0729021	480.172	
0.0255852	0.0725204	485.782	
0.012224	0.0727224	491.392	
-0.0437655	0.0735177	497.002	
0.0249489	0.0731677	502.612	
0.0134965	0.0728878	508.782	
0.0892097	0.072576	514.392	
-0.0386755	0.0714483	520.563	
-0.0940288	0.0717457	526.734	
-0.148746	0.0734445	533.466	
0.04849	0.0723485	540.198	
0.213277	0.072331	546.369	
-0.0717603	0.0726491	553.661	
0.102571	0.0720209	560.393	
0.00777033	0.0705066	567.686	
-0.172287	0.0709329	574.979	
-0.0488555	0.0693805	582.272	
0.175103	0.0696048	589.565	
0.166195	0.0697956	597.419	
0.270539	0.0707564	605.833	
0.462685	0.0732139	613.687	
0.367249	0.0757143	622.102	
0.0898459	0.0743718	631.078	
0.525037	0.0788828	640.054	
-0.0259506	0.0792964	649.029	
-0.169106	0.0800917	658.566	
-0.121387	0.0800153	668.103	
-0.24291	0.0825094	677.64	
-0.248	0.0841509	687.177	
-0.325622	0.0858561	697.274	
-0.239729	0.0875803	707.372	
-0.144292	0.0883501	718.031	
0.0567612	0.0872892	728.69	
-0.0730328	0.0874419	739.348	
0.0166778	0.0877664	751.129	
0.0204952	0.087434	763.471	
-0.196464	0.0883294	776.374	
-0.202827	0.0900393	789.837	
0.014769	0.0894985	804.423	
0.0739398	0.0895192	819.57	
-0.00622705	0.0893713	835.277	
-0.0482192	0.0901777	851.546	
-0.00749954	0.0906294	867.815	
-0.0552179	0.0911511	884.644	
0.0389463	0.0907296	902.035	
0.0402188	0.0893617	919.426	
-0.0698515	0.0898198	936.816	
-0.0819402	0.0903224	954.207	
-0.0641253	0.091245	971.036	
-0.0596716	0.0920657	988.427	
-0.0278594	0.0915249	1005.26	
0.0688498	0.0911511	1022.09	
0.112751	0.0901793	1038.36	
0.29408	0.0915934	1055.18	
0.262905	0.0934067	1070.89	
0.157288	0.0944565	1086.6	
-0.228913	0.0951038	1102.31	
0.05358	0.0940795	1117.45	
0.110842	0.094272	1132.6	
-0.0552179	0.0937486	1147.19	
0.0268577	0.0910239	1161.21	
0.0561249	0.0887541	1174.68	
-0.235911	0.0908728	1187.58	
0.0790298	0.0903782	1199.92	
0.174466	0.0907806	1212.26	
0.244453	0.0910812	1223.48	
0.311259	0.0923554	1234.7	
0.012224	0.0919291	1245.36	
0.116568	0.0913008	1255.46	
-0.174832	0.0911417	1265.56	
-0.309716	0.0929678	1275.09	
-0.118206	0.0939587	1284.63	
-0.235275	0.0949003	1294.17	
-0.180558	0.0949003	1303.14	
-0.338983	0.0962301	1312.12	
-0.242274	0.0972226	1321.65	
-0.0978463	0.0977825	1330.63	
0.014769	0.0976235	1340.17	
0.133111	0.0979161	1349.7	
0.0376738	0.097501	1359.8	
0.0344926	0.0969856	1369.9	
0.0211315	0.0966277	1380.56	
0.0440363	0.0962252	1391.22	
0.0109516	0.0964845	1401.88	
-0.0214969	0.0968519	1413.09	
0.0236765	0.096704	1423.75	
0.0764848	0.0961966	1434.41	
0.0675773	0.0957019	1445.07	
0.14838	0.0966817	1454.61	
0.221549	0.0967963	1464.71	
0.187828	0.0981387	1473.68	
0.178284	0.0988704	1482.1	
0.645924	0.103203	1490.51	
0.339254	0.10596	1498.37	
-0.172287	0.106691	1505.1	
-0.0622166	0.107651	1512.39	
-0.1532	0.10961	1518.56	
-0.157653	0.109655	1524.17	
-0.298263	0.111799	1529.78	
-0.359979	0.115895	1534.27	
-0.372068	0.118465	1538.76	
-0.301445	0.121735	1543.24	
-0.100391	0.122862	1547.17	
0.134383	0.122768	1551.1	
0.0395826	0.122621	1555.02	
0.193554	0.123692	1558.95	
0.212005	0.12492	1563.44	
-0.0914839	0.125448	1567.93	
-0.076214	0.12527	1572.98	
0.117204	0.123954	1578.59	
-0.0895751	0.125335	1584.76	
-0.146837	0.125671	1590.93	
0.0058616	0.124894	1597.1	
0.019859	0.12467	1602.71	
0.192281	0.125671	1608.88	
0.0917546	0.123865	1614.49	
0.110842	0.123485	1619.54	
0.170649	0.123441	1624.59	
-0.20728	0.124852	1629.08	
0.00458911	0.1231	1633.56	
-0.109299	0.120566	1637.49	
-0.179922	0.119693	1641.42	
-0.144928	0.121244	1644.78	
-0.146837	0.118462	1647.59	
-0.0889389	0.119092	1650.95	
-0.0240419	0.117641	1653.2	
0.414331	0.119571	1656	
0.36025	0.119744	1658.81	
0.374884	0.120013	1661.05	
0.160469	0.117361	1663.3	
0.210732	0.116071	1664.98	
0.0313114	0.114315	1667.22	
-0.0673066	0.115421	1668.91	
0.223457	0.115925	1670.03	
0.019859	0.115893	1671.15	
0.26036	0.117702	1672.27	
-0.00622705	0.115799	1672.27	
-0.178649	0.115558	1672.27	
-0.301445	0.11872	1672.27	
0.108933	0.11907	1671.71	
0.584208	0.123849	1670.59	
0.108297	0.12345	1670.03	
-0.459233	0.127968	1669.47	
-0.543854	0.132854	1669.47	
-0.370159	0.136945	1670.03	
-0.174196	0.139089	1671.15	
-0.155108	0.139942	1673.39	
-0.367614	0.142798	1676.2	
-0.37334	0.145891	1680.69	
-0.26327	0.147927	1685.74	
-0.145565	0.149104	1692.47	
0.0338564	0.149077	1699.76	
-0.039948	0.149349	1708.74	
0.101298	0.147421	1718.27	
0.0631236	0.145423	1728.93	
0.131202	0.145162	1740.15	
0.0930271	0.142803	1752.49	
-0.000500848	0.143272	1764.83	
0.00777033	0.143086	1777.74	
0.107025	0.142604	1790.08	
0.0414913	0.142458	1802.42	
0.0675773	0.142573	1814.76	
0.154107	0.140754	1826.54	
0.0637599	0.140602	1837.76	
0.206915	0.140926	1847.86	
0.259723	0.141079	1857.96	
-0.0456742	0.139423	1866.93	
0.0917546	0.139463	1875.35	
0.0434	0.138863	1883.2	
0.108933	0.137204	1889.93	
-0.125841	0.135365	1896.11	
-0.118842	0.135372	1901.72	
0.243181	0.134451	1906.76	
-0.0825764	0.133471	1911.25	
-0.190738	0.131989	1914.62	
-0.0781227	0.130347	1917.42	
0.0408551	0.12896	1919.67	
0.0262214	0.128846	1921.35	
0.191645	0.129431	1922.47	
-0.0342218	0.13015	1923.03	
0.141382	0.130909	1923.03	
-0.304626	0.134166	1921.91	
0.0351289	0.134255	1920.79	
0.220912	0.135574	1919.11	
-0.0571266	0.13593	1917.42	
-0.0940288	0.137107	1915.18	
-0.171651	0.139059	1912.94	
-0.0825764	0.140209	1910.13	
-0.0704878	0.14043	1907.89	
0.110842	0.139323	1905.64	
0.114659	0.138591	1902.84	
-0.00622705	0.137871	1900.59	
0.140109	0.132813	1898.35	
-0.106754	0.131488	1896.67	
-0.0437655	0.130202	1894.42	
0.0554887	0.129135	1892.18	
0.0115878	0.127487	1890.5	
-0.13284	0.127239	1888.25	
-0.0119533	0.124376	1886.57	
0.252725	0.122303	1884.32	
0.306169	0.120644	1882.64	
0.425147	0.120881	1880.96	
-0.338983	0.123267	1878.71	
-0.0157707	0.123081	1877.03	
0.147108	0.123948	1875.35	
0.136928	0.123382	1873.67	
-0.0456742	0.122719	1871.42	
-0.51904	0.126994	1869.74	
-0.317351	0.129405	1868.06	
0.0313114	0.12892	1866.37	
0.105752	0.128082	1864.69	
-0.219369	0.128807	1863.01	
-0.00113709	0.128877	1861.89	
0.0179503	0.128897	1860.76	
0.0542162	0.127516	1859.64	
-0.0800314	0.128399	1858.52	
-0.166561	0.129956	1857.4	
-0.0927563	0.130177	1857.4	
0.0497625	0.127606	1856.84	
-0.0323131	0.127975	1856.84	
-0.0272231	0.127155	1857.4	
0.0274939	0.125081	1857.96	
0.0631236	0.123263	1858.52	
0.169377	0.122488	1859.64	
0.141382	0.122012	1860.76	
0.0955721	0.121728	1862.45	
0.000135397	0.118583	1863.57	
0.0160415	0.11582	1864.69	
0.0472175	0.112599	1866.37	
-0.0431293	0.112426	1866.93	
-0.0946651	0.112265	1868.06	
-0.132204	0.1139	1868.62	
-0.106754	0.114295	1869.18	
-0.0405843	0.113466	1869.18	
0.115932	0.113824	1869.18	
0.430873	0.115529	1868.62	
0.198008	0.116447	1868.06	
0.368521	0.117345	1866.93	
0.126112	0.114592	1865.81	
0.253997	0.116043	1864.69	
0.386336	0.114064	1863.01	
-0.0755777	0.114737	1861.32	
-0.248636	0.112631	1859.08	
-0.0883026	0.108075	1856.84	
-0.160198	0.105976	1854.03	
-0.394973	0.108184	1850.67	
-0.295718	0.10959	1846.74	
-0.0908476	0.106822	1842.81	
-0.24291	0.105518	1838.88	
-0.154472	0.10443	1834.96	
0.00649784	0.102909	1831.03	
0.177648	0.104024	1827.1	
-0.126477	0.104889	1824.3	
-0.0393118	0.10527	1820.93	
0.0160415	0.105478	1818.69	
-0.0246782	0.105413	1817.01	
0.00904282	0.105392	1815.88	
-0.127114	0.106658	1815.32	
-0.0596716	0.107332	1815.32	
-0.0354943	0.107617	1815.88	
0.0268577	0.107764	1817.01	
0.141382	0.108502	1818.13	
0.0154053	0.107806	1819.81	
0.114659	0.108315	1821.49	
0.0599424	0.106846	1823.18	
0.0911184	0.10516	1825.42	
0.014769	0.104555	1827.1	
0.0446725	0.104191	1828.79	
-0.0316768	0.104942	1830.47	
-0.0774865	0.105627	1832.15	
-0.013862	0.104507	1833.84	
0.0917546	0.103237	1834.96	
0.197371	0.102778	1835.52	
0.273084	0.103684	1836.08	
0.00204413	0.101756	1836.64	
0.100662	0.100981	1836.64	
0.203097	0.102421	1836.08	
0.247635	0.104159	1835.52	
0.0306751	0.102936	1834.96	
0.318894	0.104783	1833.27	
0.207551	0.105444	1832.15	
-0.198373	0.104382	1829.91	
-0.315442	0.107888	1827.67	
-0.265179	0.10933	1825.42	
-0.00813579	0.10884	1822.62	
-0.108026	0.10898	1819.25	
-0.344073	0.110705	1815.32	
-0.227004	0.112149	1811.96	
0.115932	0.111603	1808.03	
0.383791	0.114333	1804.66	
-0.073669	0.114923	1801.3	
-0.0590354	0.115451	1797.93	
0.0561249	0.114611	1795.69	
0.147744	0.114021	1793.44	
-0.0622166	0.114206	1791.76	
-0.26327	0.117283	1791.2	
-0.272814	0.120127	1790.64	
-0.125841	0.120057	1790.64	
-0.0946651	0.120884	1790.64	
0.114023	0.119497	1791.2	
0.157924	0.118015	1792.32	
0.00395287	0.114724	1792.88	
0.0166778	0.111167	1794.01	
-0.0106808	0.111117	1795.13	
0.0243127	0.110402	1796.25	
-0.0577629	0.110611	1797.37	
-0.0768502	0.110922	1799.05	
0.0281302	0.105451	1800.18	
0.0478538	0.101799	1801.3	
0.0898459	0.10201	1802.98	
0.00331662	0.10192	1803.54	
0.017314	0.0995527	1804.66	
0.131202	0.0998534	1805.79	
0.0389463	0.0996434	1806.35	
0.0408551	0.0996927	1806.91	
0.0885734	0.0987781	1807.47	
0.269267	0.0988052	1807.47	
0.0955721	0.0978333	1807.47	
0.211369	0.0994446	1807.47	
-0.00177334	0.0991392	1806.91	
0.198008	0.0998471	1805.79	
0.571483	0.104837	1804.1	
0.633835	0.110544	1802.42	
-0.351072	0.113361	1800.18	
-0.155745	0.114505	1797.93	
-0.329439	0.117843	1794.57	
-0.0819402	0.118664	1791.2	
-0.110571	0.11993	1787.83	
-0.382248	0.124225	1783.91	
-0.386065	0.127654	1779.42	
-0.333257	0.13004	1775.49	
-0.0749415	0.129467	1771.57	
0.263541	0.130035	1768.2	
0.234273	0.130972	1764.83	
0.107025	0.130883	1762.03	
0.0777573	0.127352	1759.79	
-0.0825764	0.127198	1758.1	
0.0561249	0.124074	1756.98	
-0.0564904	0.124377	1756.42	
-0.136657	0.124204	1755.86	
-0.178649	0.123127	1756.42	
-0.25818	0.124953	1756.42	
-0.100391	0.123471	1756.98	
0.0255852	0.122332	1757.54	
0.0853922	0.120584	1758.1	
0.0631236	0.116265	1759.22	
0.012224	0.113186	1759.79	
0.126112	0.112539	1760.91	
0.160469	0.110714	1761.47	
0.159197	0.109761	1762.59	
0.107025	0.109897	1763.15	
0.217731	0.110297	1764.27	
0.00777033	0.108955	1765.4	
0.228547	0.109847	1765.96	
0.197371	0.110981	1766.52	
0.0675773	0.11041	1767.08	
0.185919	0.11136	1767.08	
0.0103153	0.109986	1767.08	
-0.0717603	0.110107	1766.52	
-0.246091	0.112213	1765.4	
-0.0456742	0.112938	1764.83	
0.123567	0.11276	1763.15	
0.0650324	0.112564	1761.47	
-0.0927563	0.113345	1759.79	
-0.165924	0.115405	1758.1	
-0.0634891	0.116129	1755.86	
0.118477	0.116461	1753.61	
0.0987533	0.116895	1751.93	
0.135019	0.116929	1749.69	
0.0752123	0.115906	1747.44	
-0.277904	0.118546	1745.2	
-0.258816	0.121217	1742.96	
-0.0291319	0.120535	1741.27	
-0.0316768	0.119121	1739.59	
-0.12775	0.120419	1737.91	
-0.166561	0.122078	1736.79	
-0.0157707	0.121204	1735.66	
-0.0437655	0.120166	1734.54	
-0.0590354	0.121063	1733.98	
0.279447	0.120668	1733.42	
0.154743	0.12014	1733.42	
0.113387	0.11829	1733.42	
0.0134965	0.115001	1733.42	
-0.0514004	0.112863	1733.98	
0.0414913	0.112367	1734.54	
0.0262214	0.111024	1735.66	
-0.115661	0.10874	1736.22	
-0.0596716	0.107067	1737.35	
0.019859	0.106709	1738.47	
0.0904822	0.103776	1739.59	
-0.0342218	0.103381	1740.15	
0.051035	0.102301	1740.71	
0.249543	0.104236	1741.27	
0.271812	0.105476	1741.83	
0.122294	0.105077	1741.83	
-0.0316768	0.102761	1741.83	
-0.0965738	0.100999	1741.83	
0.267358	0.101414	1741.27	
0.196735	0.101435	1740.71	
-0.213643	0.103431	1740.15	
-0.0571266	0.103423	1739.59	
-0.039948	0.103862	1738.47	
0.0446725	0.103582	1736.79	
0.00331662	0.103442	1735.66	
0.0688498	0.103374	1733.98	
-0.0660341	0.103456	1731.74	
0.111478	0.102803	1730.05	
0.0809385	0.102893	1727.81	
0.0605787	0.102978	1725.57	
-0.186921	0.104948	1723.32	
-0.00622705	0.105044	1720.52	
-0.279812	0.108015	1718.27	
-0.171014	0.109413	1716.03	
-0.156381	0.111366	1714.35	
-0.12266	0.113002	1712.1	
-0.181831	0.114934	1710.42	
-0.099755	0.114239	1709.3	
0.012224	0.114161	1708.17	
0.208187	0.114129	1707.05	
0.169377	0.114805	1706.49	
0.107661	0.113902	1706.49	
-0.0583991	0.109771	1706.49	
0.0701223	0.104134	1707.05	
0.0255852	0.100367	1708.17	
-0.00113709	0.0988212	1708.74	
-0.0704878	0.0962317	1709.86	
-0.0151345	0.0955636	1711.54	
0.100026	0.0944582	1712.66	
0.177011	0.0914058	1713.78	
0.146472	0.0880099	1714.91	
-0.011317	0.0847905	1716.03	
-0.000500848	0.0840461	1717.15	
0.353251	0.0849432	1717.71	
0.105116	0.0836516	1718.27	
-0.0335856	0.0839172	1718.83	
-0.0437655	0.0845773	1718.83	
0.0306751	0.0834448	1718.83	
-0.0673066	0.0845566	1718.27	
0.171921	0.0847109	1717.71	
0.051035	0.0828547	1717.15	
-0.0514004	0.0815822	1716.59	
0.0930271	0.0789307	1716.03	
0.392698	0.0808537	1714.91	
0.32462	0.0833558	1713.78	
-0.216824	0.0856701	1712.66	
-0.239729	0.0884362	1710.98	
-0.101664	0.089575	1709.86	
0.0548525	0.0888625	1708.74	
-0.213643	0.0903942	1707.05	
-0.450326	0.0943055	1705.93	
-0.109935	0.0953346	1704.81	
-0.106117	0.0952185	1703.69	
-0.184376	0.0971399	1703.13	
-0.073669	0.0965911	1702	
0.0179503	0.0954379	1702	
0.0790298	0.0955524	1702	
0.0962084	0.0946553	1702	
0.0376738	0.0943817	1702.56	
0.101298	0.0936771	1703.69	
0.0612149	0.0908284	1704.81	
-0.122024	0.0915919	1706.49	
0.0930271	0.0912865	1708.17	
0.000135397	0.0916348	1710.42	
0.171285	0.0914201	1712.1	
-0.0743052	0.0905039	1714.35	
-0.1532	0.091401	1716.03	
-0.129022	0.0925064	1718.27	
0.0141328	0.0923776	1720.52	
0.0561249	0.0915886	1722.2	
0.0287664	0.0915488	1724.44	
0.139473	0.0891645	1726.13	
0.0987533	0.0865639	1727.81	
0.367249	0.0889451	1729.49	
0.270539	0.0903337	1731.18	
0.0860284	0.0889165	1732.3	
0.171285	0.0879637	1733.42	
-0.206008	0.0898661	1734.54	
0.0421276	0.0890072	1735.1	
-0.0259506	0.0886763	1735.66	
-0.20219	0.0889038	1735.66	
-0.0666703	0.089023	1735.66	
-0.00495456	0.0889387	1735.66	
-0.0933926	0.0900076	1735.1	
0.157924	0.0900728	1733.98	
0.290263	0.0923904	1733.42	
0.121658	0.0928692	1732.3	
0.247635	0.0931889	1731.18	
0.617293	0.0977651	1730.05	
-0.0431293	0.098395	1728.93	
-0.296355	0.101454	1727.81	
-0.172287	0.102834	1726.13	
-0.141111	0.104735	1725	
-0.068579	0.103926	1723.88	
-0.0991188	0.103199	1722.76	
-0.116934	0.104145	1721.64	
-0.124569	0.105074	1720.52	
-0.274722	0.106855	1719.39	
0.100662	0.105188	1718.27	
0.316349	0.106385	1717.71	
-0.0501279	0.104749	1717.15	
0.0185865	0.103992	1717.15	
-0.235911	0.105952	1717.15	
-0.240365	0.108802	1718.27	
-0.0953013	0.109788	1719.39	
-0.124569	0.111346	1721.08	
-0.0819402	0.111505	1722.76	
-0.108662	0.112477	1725.57	
-0.0743052	0.11341	1728.37	
0.022404	0.11358	1731.18	
0.0573974	0.111285	1735.1	
0.105752	0.11128	1738.47	
0.0841197	0.108323	1741.83	
-0.0304044	0.106917	1745.76	
0.0497625	0.104856	1749.69	
0.0478538	0.103151	1753.05	
0.0230402	0.101102	1756.98	
-0.0342218	0.100447	1760.35	
0.082211	0.100391	1763.15	
0.183374	0.100143	1765.96	
0.26036	0.101053	1768.2	
-0.0953013	0.101929	1770.44	
0.149017	0.101835	1772.13	
0.477319	0.105907	1773.81	
0.25018	0.107665	1774.93	
0.347525	0.110129	1775.49	
0.238091	0.110805	1776.05	
-0.28872	0.113541	1776.05	
-0.265815	0.116199	1775.49	
0.110842	0.115537	1774.37	
0.019859	0.114874	1773.25	
-0.429966	0.11906	1771.57	
0.261632	0.120671	1769.32	
0.340526	0.120544	1767.08	
0.265449	0.122148	1764.27	
-0.234639	0.124158	1761.47	
-0.105481	0.124775	1758.66	
0.0669411	0.124751	1755.86	
0.131202	0.12439	1753.61	
-0.396881	0.12764	1751.37	
-0.410879	0.132238	1749.13	
-0.557851	0.137303	1747.44	
-0.403244	0.141405	1746.32	
0.000135397	0.138477	1745.76	
0.0440363	0.13579	1745.2	
0.0408551	0.133213	1745.2	
-0.129659	0.132113	1745.76	
0.105116	0.131147	1746.88	
0.149017	0.132089	1748.57	
-0.0310406	0.130263	1750.81	
-0.139202	0.127152	1753.05	
-0.0622166	0.126674	1755.86	
0.0790298	0.125404	1759.22	
0.164923	0.124209	1762.59	
0.0885734	0.123358	1765.96	
0.124839	0.123786	1769.88	
0.0962084	0.123958	1773.81	
-0.0100445	0.124096	1777.18	
0.0274939	0.124198	1780.54	
-0.0272231	0.124457	1783.91	
0.0243127	0.124602	1786.71	
-0.00368207	0.123418	1788.96	
-0.0284956	0.123773	1791.2	
-0.00304583	0.123805	1793.44	
0.220912	0.124301	1795.13	
0.0758485	0.123317	1796.25	
0.0879372	0.121664	1796.81	
0.25018	0.121876	1797.37	
0.247635	0.123493	1797.93	
0.238727	0.125319	1797.93	
-0.200918	0.127616	1797.37	
-0.144928	0.128671	1796.81	
0.0344926	0.128338	1795.13	
-0.0284956	0.125951	1794.01	
-0.00495456	0.124295	1791.76	
-0.178013	0.126215	1789.52	
-0.190738	0.127409	1787.27	
0.0936634	0.125286	1784.47	
0.0440363	0.125267	1781.1	
-0.00240958	0.125031	1777.74	
0.155379	0.123563	1774.93	
-0.144292	0.124339	1771.57	
-0.0456742	0.124747	1768.76	
0.183374	0.124646	1765.96	
0.150925	0.124576	1763.15	
0.131202	0.122986	1760.91	
-0.391791	0.126687	1758.66	
-0.118206	0.126393	1756.98	
0.0300389	0.12092	1755.3	
-0.00431832	0.120531	1754.18	
-0.0933926	0.118502	1752.49	
-0.215552	0.118934	1751.37	
-0.199645	0.11952	1750.81	
-0.0946651	0.119781	1749.69	
0.0313114	0.118476	1749.13	
-0.0348581	0.117656	1748.57	
-0.0323131	0.116733	1748.57	
0.0790298	0.113776	1748	
0.140746	0.114177	1748	
0.20437	0.113057	1748	
0.306169	0.114618	1748	
0.273721	0.116541	1748	
0.0707586	0.113889	1748	
0.0376738	0.111109	1748	
-0.0552179	0.110708	1748.57	
0.000771642	0.109454	1748.57	
-0.0183157	0.108818	1748	
-0.215552	0.109887	1748	
-0.321168	0.112356	1747.44	
-0.100391	0.113584	1746.88	
0.105752	0.114067	1746.32	
0.0841197	0.113851	1745.2	
0.157924	0.114589	1744.64	
0.538399	0.118669	1743.52	
0.487499	0.123042	1742.39	
-0.0227694	0.123748	1741.27	
0.135656	0.124335	1740.71	
-0.249273	0.126485	1739.59	
-0.0603079	0.127266	1738.47	
-0.210462	0.128537	1737.35	
-0.337711	0.130311	1736.22	
-0.351072	0.132868	1735.66	
-0.26836	0.135062	1734.54	
-0.0367668	0.131656	1733.42	
-0.0539454	0.130694	1732.3	
0.0809385	0.128028	1731.74	
-0.0965738	0.127613	1731.18	
0.14329	0.125159	1730.61	
0.106388	0.122564	1730.61	
-0.0978463	0.123434	1730.61	
-0.0749415	0.124382	1730.61	
0.019859	0.119884	1731.18	
-0.123932	0.119507	1732.3	
0.051035	0.116612	1732.86	
0.0713948	0.114672	1733.98	
0.0580337	0.111906	1735.1	
0.0892097	0.110743	1736.22	
0.143927	0.111513	1737.35	
0.128021	0.111481	1738.47	
-0.0482192	0.107994	1739.03	
-0.011317	0.103999	1740.15	
0.150925	0.0989294	1740.71	
0.100026	0.0948972	1741.27	
-0.039948	0.095298	1741.83	
-0.0151345	0.0958897	1742.39	
0.146472	0.096763	1742.39	
0.0733036	0.0951995	1741.83	
-0.0647616	0.0957959	1741.83	
0.0154053	0.0951517	1741.27	
0.18401	0.0956814	1740.71	
-0.154472	0.0958341	1740.15	
-0.155745	0.0967694	1739.59	
0.0103153	0.0968759	1738.47	
0.00967907	0.0961299	1737.35	
-0.0393118	0.0966373	1736.79	
0.014769	0.0962412	1735.66	
0.110206	0.0963812	1734.54	
0.106388	0.0963446	1733.42	
0.077121	0.0963908	1732.3	
0.0491262	0.0956273	1730.61	
0.00967907	0.0957736	1729.49	
0.246998	0.0972068	1727.81	
0.0561249	0.0964831	1726.13	
-0.142383	0.0978764	1724.44	
-0.298263	0.0996499	1722.76	
-0.0259506	0.100151	1721.08	
-0.0851214	0.101123	1719.39	
-0.214279	0.101764	1717.15	
-0.241638	0.102704	1715.47	
-0.0348581	0.101665	1713.78	
0.0402188	0.0992538	1712.66	
0.00840658	0.0977204	1710.98	
0.0599424	0.0976648	1709.86	
-0.103573	0.0984155	1708.74	
0.0828472	0.0981945	1707.61	
0.0306751	0.0961076	1707.05	
0.0624874	0.0938251	1705.93	
0.0134965	0.0937535	1705.93	
-0.0844852	0.0950387	1705.37	
0.0993896	0.0950085	1704.81	
-0.0889389	0.0953441	1704.81	
-0.0577629	0.0944788	1704.81	
0.285809	0.0958801	1704.25	
0.135019	0.0953966	1704.25	
0.110842	0.0949958	1704.25	
-0.0335856	0.0950196	1703.69	
-0.131567	0.0924174	1703.69	
0.175739	0.0919927	1703.13	
0.0942996	0.0922361	1703.13	
0.0701223	0.0918941	1702.56	
-0.0851214	0.0918114	1702.56	
-0.0717603	0.0903735	1702	
-0.136657	0.0897436	1701.44	
-0.127114	0.0900681	1700.88	
0.0866647	0.0902479	1700.32	
0.0923909	0.0898232	1699.76	
0.128021	0.0897803	1698.64	
-0.0564904	0.0905549	1698.08	
0.00268038	0.0901206	1697.52	
-0.042493	0.0895018	1696.95	
0.125476	0.0876949	1696.39	
0.0688498	0.0856462	1695.27	
-0.0469467	0.0864081	1694.71	
-0.145565	0.0882405	1694.15	
-0.227004	0.0899583	1693.59	
-0.0323131	0.0902892	1693.03	
0.146472	0.0905707	1692.47	
0.121022	0.0886254	1691.91	
-0.166561	0.0870794	1691.35	
0.0166778	0.0859087	1690.78	
0.0936634	0.0857878	1690.22	
0.0427638	0.0855189	1689.66	
-0.0946651	0.0858864	1689.1	
-0.039948	0.0819018	1688.54	
0.0395826	0.077631	1687.98	
-0.0335856	0.0777392	1687.42	
0.0720311	0.077103	1686.86	
-0.108662	0.0756968	1686.3	
0.169377	0.0757875	1685.74	
0.1891	0.0745739	1685.17	
0.21964	0.0723932	1684.61	
0.106388	0.0689464	1684.05	
0.108297	0.0663457	1684.05	
0.00204413	0.0659576	1683.49	
-0.351708	0.0689353	1682.93	
0.05358	0.0686617	1682.37	
0.0217677	0.0674783	1681.81	
-0.159562	0.068641	1681.25	
-0.12775	0.0698546	1680.69	
-0.0246782	0.0691229	1680.13	
-0.00940828	0.0684676	1680.13	
-0.0412205	0.0690784	1679.56	
0.0892097	0.0677312	1679.56	
0.0249489	0.0679713	1679	
0.180829	0.0690657	1679	
0.00840658	0.0694012	1678.44	
-0.0157707	0.0696669	1678.44	
-0.218733	0.0714149	1677.88	
-0.129022	0.0724249	1677.88	
0.0624874	0.0715676	1677.88	
0.145199	0.0719064	1677.32	
-0.0329493	0.0717267	1676.76	
0.0567612	0.071294	1676.2	
0.101298	0.0709075	1675.64	
0.184646	0.0716027	1675.64	
0.0268577	0.0708694	1675.08	
-0.0176795	0.0713131	1673.95	
0.10448	0.0707103	1673.39	
0.0739398	0.0706038	1672.83	
-0.0157707	0.0699214	1672.27	
-0.145565	0.0698323	1671.71	
-0.162743	0.0699023	1670.59	
-0.00877203	0.0700931	1670.03	
-0.0272231	0.0704622	1668.91	
0.014769	0.0699214	1667.78	
0.0503987	0.069573	1666.66	
-0.0157707	0.0696287	1665.54	
0.198644	0.0705512	1663.86	
0.222185	0.0720019	1662.73	
-0.0673066	0.0731662	1661.05	
0.0166778	0.0730962	1659.93	
0.051035	0.0711366	1658.25	
-0.071124	0.0722866	1657.12	
-0.0972101	0.0718348	1655.44	
-0.0208607	0.0690608	1654.32	
0.0650324	0.0684516	1652.64	
0.114659	0.067747	1651.51	
-0.122024	0.0668245	1650.39	
-0.076214	0.0651702	1649.27	
0.156015	0.0653818	1648.15	
0.299807	0.0677821	1647.03	
-0.0170432	0.0680365	1646.47	
-0.250545	0.0709426	1645.9	
-0.133476	0.0712416	1645.34	
-0.157017	0.0729833	1644.78	
0.0243127	0.0730469	1644.22	
-0.0774865	0.0741969	1644.22	
-0.115661	0.0754885	1643.66	
0.0529437	0.0741731	1643.66	
0.0166778	0.0740124	1644.22	
0.0364014	0.072759	1644.22	
0.131838	0.0724998	1644.78	
0.0548525	0.0701902	1644.78	
0.0287664	0.0695523	1645.34	
0.105752	0.0695014	1645.9	
0.000771642	0.0691579	1646.47	
0.077121	0.0676134	1647.03	
-0.0946651	0.0678027	1647.59	
-0.0946651	0.0688063	1648.15	
0.017314	0.068932	1648.71	
0.0211315	0.0678694	1649.27	
-0.123296	0.0683848	1649.27	
-0.00304583	0.0670487	1649.83	
0.0478538	0.065299	1649.83	
0.169377	0.0661261	1649.83	
0.105116	0.0662534	1649.83	
-0.0272231	0.0662454	1649.83	
0.193554	0.066616	1649.83	
0.177648	0.0674193	1649.27	
0.4805	0.0707994	1649.27	
0.307442	0.072619	1648.71	
0.0262214	0.0726683	1648.15	
0.0567612	0.0717665	1648.15	
-0.300172	0.0733125	1647.59	
-0.14302	0.0724727	1647.03	
0.0440363	0.0717092	1646.47	
-0.115661	0.0724011	1645.9	
-0.113116	0.073322	1645.34	
-0.302081	0.0746772	1644.22	
-0.173559	0.0765796	1643.66	
-0.193919	0.0785822	1642.54	
0.114659	0.0791564	1641.98	
0.0777573	0.0779873	1641.42	
-0.0284956	0.0778728	1641.42	
-0.215552	0.0804241	1640.86	
-0.132204	0.0814103	1640.86	
-0.139838	0.0830884	1641.42	
-0.0634891	0.0826367	1641.98	
-0.0482192	0.0824251	1642.54	
0.0383101	0.081151	1643.66	
0.0981171	0.0799358	1644.78	
0.0262214	0.0796097	1645.9	
0.0707586	0.0792343	1647.03	
0.0828472	0.0790832	1648.71	
0.110842	0.0756745	1650.39	
0.121022	0.076349	1652.08	
0.0255852	0.0763108	1653.76	
0.0955721	0.0746709	1654.88	
-0.0825764	0.0742191	1656.56	
0.0478538	0.0734938	1657.69	
0.10957	0.0734954	1658.81	
0.00840658	0.0729992	1659.93	
-0.181194	0.074919	1660.49	
0.102571	0.0751942	1661.05	
0.0427638	0.0739583	1661.61	
0.144563	0.074488	1661.61	
-0.00177334	0.074348	1661.61	
0.191009	0.0730708	1661.05	
0.248271	0.0732633	1660.49	
0.376792	0.0764063	1659.93	
0.35516	0.0785059	1659.37	
0.196735	0.0791438	1658.81	
-0.361252	0.0831887	1657.69	
-0.037403	0.0835497	1657.12	
-0.039948	0.0831027	1656	
-0.178013	0.0851514	1654.88	
-0.40897	0.0890644	1653.76	
-0.347254	0.0924921	1652.08	
-0.188829	0.094641	1650.95	
0.019859	0.0942847	1649.83	
0.164923	0.0934783	1648.71	
0.183374	0.0926846	1647.03	
0.193554	0.0935324	1646.47	
0.3857	0.0961172	1645.34	
-0.122024	0.0974851	1644.78	
-0.226368	0.100245	1644.22	
-0.0768502	0.100856	1643.66	
-0.126477	0.101134	1643.66	
-0.320532	0.103117	1643.66	
-0.290628	0.105351	1644.22	
-0.193919	0.107457	1644.22	
-0.0564904	0.108511	1644.78	
0.00777033	0.107722	1644.78	
0.00395287	0.106711	1645.34	
0.112114	0.106623	1646.47	
0.130566	0.107278	1647.03	
0.0503987	0.106636	1648.15	
0.116568	0.105581	1648.71	
0.0573974	0.104393	1649.83	
-0.042493	0.104258	1650.95	
-0.0622166	0.102882	1652.64	
-0.00495456	0.102761	1653.76	
0.0573974	0.0998296	1654.88	
-0.00813579	0.0985762	1656	
-0.1023	0.098029	1657.12	
-0.0558541	0.0988307	1658.25	
0.0262214	0.0977936	1658.81	
0.174466	0.0973817	1659.37	
0.366612	0.100518	1659.93	
0.21455	0.101831	1660.49	
0.221549	0.10341	1660.49	
0.0395826	0.102696	1661.05	
-0.108026	0.104228	1661.05	
0.120386	0.104719	1661.05	
-0.0227694	0.104889	1660.49	
-0.324986	0.108147	1660.49	
-0.165288	0.110029	1659.93	
-0.169106	0.110773	1659.93	
-0.0972101	0.110798	1659.37	
-0.176741	0.112739	1658.25	
0.0497625	0.112453	1657.69	
0.0503987	0.110724	1656.56	
0.0217677	0.110476	1655.44	
0.017314	0.110781	1654.88	
0.0357651	0.10973	1653.2	
-0.0558541	0.110237	1652.08	
-0.0284956	0.11025	1650.95	
-0.0284956	0.109599	1649.83	
-0.013862	0.108961	1648.71	
0.0262214	0.104894	1647.59	
-0.0348581	0.103168	1646.47	
0.207551	0.104506	1644.78	
0.37043	0.107643	1643.66	
0.220276	0.105844	1642.54	
0.247635	0.10589	1640.86	
-0.0240419	0.106571	1639.17	
0.248271	0.106897	1637.49	
0.176375	0.106529	1635.25	
0.152198	0.10403	1633	
-0.255635	0.104851	1630.76	
-0.308443	0.105996	1627.95	
-0.331984	0.10917	1625.15	
-0.173559	0.111128	1622.34	
-0.161471	0.112457	1618.98	
-0.0666703	0.110969	1615.05	
0.122931	0.109876	1611.68	
0.16874	0.109165	1607.76	
-0.128386	0.109814	1604.39	
-0.188829	0.11122	1600.46	
0.198008	0.112583	1597.1	
0.0974809	0.112577	1594.29	
-0.168469	0.114524	1590.93	
-0.185648	0.116673	1588.68	
-0.193919	0.118783	1585.88	
-0.139838	0.120073	1584.2	
-0.0800314	0.120663	1581.95	
-0.00877203	0.121007	1580.27	
0.0688498	0.12074	1578.59	
0.0561249	0.119475	1576.9	
0.0160415	0.119793	1575.78	
0.0306751	0.119391	1574.66	
0.0516712	0.118992	1574.1	
0.0262214	0.116918	1572.98	
0.0376738	0.116515	1572.42	
0.0166778	0.116776	1571.85	
0.0472175	0.115858	1571.29	
0.077121	0.115612	1570.17	
0.0179503	0.114522	1569.61	
0.0281302	0.112758	1568.49	
0.05358	0.109526	1567.37	
0.0192227	0.106782	1565.68	
0.0179503	0.105635	1564	
-0.00113709	0.102034	1561.76	
0.0542162	0.101202	1559.51	
0.0166778	0.100636	1556.71	
0.0408551	0.0984473	1553.9	
-0.0405843	0.0947634	1551.1	
0.0701223	0.0909921	1547.73	
0.110206	0.0892059	1543.81	
0.102571	0.0894301	1539.88	
0.173194	0.0895129	1535.39	
0.145835	0.0891375	1530.34	
0.0364014	0.0878379	1524.73	
-0.0278594	0.0852595	1518.56	
0.147108	0.0845104	1511.83	
0.0860284	0.082107	1504.54	
-0.0208607	0.0815471	1496.12	
0.255906	0.0818414	1487.15	
-0.0488555	0.0791246	1477.05	
-0.195192	0.0781702	1466.39	
-0.160198	0.077833	1454.61	
0.019859	0.0770695	1441.71	
-0.0583991	0.0777312	1428.24	
-0.202827	0.079799	1414.78	
-0.219369	0.0818716	1400.75	
-0.162107	0.083187	1386.73	
-0.156381	0.0852468	1373.26	
-0.108026	0.0861614	1360.36	
0.00713409	0.0865161	1348.58	
0.0733036	0.0858242	1337.92	
0.0516712	0.0847187	1328.39	
0.014769	0.0845215	1319.41	
0.045945	0.0844881	1311.56	
0.0758485	0.0841652	1304.82	
0.00777033	0.0830645	1298.65	
0.0542162	0.0820481	1293.04	
0.0631236	0.0819415	1287.43	
0.0898459	0.0810953	1281.82	
0.079666	0.0782259	1276.77	
0.194826	0.0780286	1271.17	
0.124839	0.0770616	1264.99	
0.0593062	0.0770504	1259.38	
0.0440363	0.0755298	1252.65	
0.0860284	0.0751862	1245.92	
0.0344926	0.0746136	1238.63	
0.082211	0.0711859	1230.77	
0.05358	0.0690688	1222.92	
-0.11757	0.0685534	1214.51	
-0.138566	0.068967	1205.53	
0.0115878	0.0670837	1195.43	
0.0154053	0.0674273	1185.33	
0.0351289	0.067572	1173.55	
-0.0195882	0.0679856	1161.77	
-0.0622166	0.0687809	1148.31	
-0.071124	0.0698498	1134.28	
-0.0908476	0.0701997	1118.58	
-0.00940828	0.0700088	1101.19	
-0.0316768	0.0700406	1082.67	
-0.0291319	0.0701933	1062.48	
-0.0838489	0.071294	1040.6	
-0.1023	0.0719685	1015.92	
-0.037403	0.071267	990.11	
0.0243127	0.0683195	961.5	
-0.00877203	0.0672045	931.206	
-0.016407	0.0658922	898.108	
-0.0144982	0.0657968	863.888	
0.0357651	0.0639564	826.863	
0.0249489	0.0629432	788.715	
0.00204413	0.0624008	748.885	
-0.0189519	0.0600339	707.933	
0.0306751	0.0566428	665.859	
0.0332201	0.0529907	622.663	
0.00395287	0.0512156	578.906	
-0.00813579	0.0496822	534.588	
0.0134965	0.0488806	490.27	
0.0523075	0.0481743	446.513	
-0.00877203	0.0475747	402.195	
-0.0144982	0.0464358	358.999	
0.0389463	0.044158	316.364	
0.0306751	0.0428712	274.289	
0.0103153	0.0427932	233.337	
-0.00622705	0.0411708	194.068	
0.0166778	0.0391475	156.482	
0.051035	0.0367187	120.579	
0.0192227	0.0351281	86.9195	
-0.0125895	0.0344537	54.9432	
0.012224	0.0342437	25.7718	
0.0414913	0.0341403	0	
0.022404	0.034355	0	
0.00395287	0.0344759	0	
0.00140789	0.0347686	0	
0.0338564	0.0349133	0	
0.0338564	0.0348369	0	
0.0115878	0.0350978	0	
0.0058616	0.035206	0	
0.0383101	0.035295	0	
0.0434	0.0350898	0	
-0.00304583	0.0352998	0	
-0.00940828	0.0356752	0	
0.0243127	0.0358963	0	
0.051035	0.0355988	0	
0.000135397	0.035777	0	
-0.0265869	0.0360315	0	
0.0179503	0.0363098	0	
0.0529437	0.036006	0	
0.0211315	0.0362033	0	
-0.00877203	0.0358851	0	
0.0154053	0.0360299	0	
0.0478538	0.0354493	0	
0.0294027	0.0351295	0	
-0.00940828	0.0344917	0	
0.0134965	0.0338984	0	
0.045945	0.0338029	0	
0.0211315	0.033313	0	
0.0185865	0.0326561	0	
0.00967907	0.032699	0	
0.0192227	0.0322982	0	
0.0605787	0.0303449	0	
0.0128603	0.0297277	0	
-0.0125895	0.0279017	0	
0.0313114	0.0259866	0	
0.0109516	0.0260757	0	
0.0185865	0.0253058	0	
-0.0170432	0.023448	0	
0.0319476	0.0209348	0	
0.051035	0.0188241	0	
0.000135397	0.0172589	0	
0.00395287	0.0161392	0	
0.0274939	0.0159356	0	
0.05358	0.0157383	0	
-0.00113709	0.016233	0	
-0.00622705	0.0164429	0	
0.00268038	0.0168756	0	
0.0427638	0.0166895	0	
0.0058616	0.0167085	0	
-0.0125895	0.0172923	0	
0.00713409	0.0175897	0	
0.0472175	0.0172191	0	
0.0103153	0.0173193	0	
0.00904282	0.0162806	0	
0.0103153	0.015929	0	
0.0344926	0.015991	0	
0.0192227	0.0162392	0	
0.012224	0.0162566	0	
0.0109516	0.0164921	0	
0.0344926	0.016325	0	
0.0516712	0.0163059	0	
0.0204952	0.0149253	0	
-0.0189519	0.0137291	0	
0.0243127	0.0136019	0	
0.0548525	0.0133045	0	
0.00840658	0.0135717	0	
-0.0265869	0.0136417	0	
0.0204952	0.0128146	0	
0.0332201	0.0117711	0	
-0.0125895	0.0109885	0	
-0.0125895	0.0110203	0	
0.0115878	0.0105877	0	
0.0542162	0.00983854	0	
-0.00113709	0.00901142	0	
-0.00749954	0.00806342	0	
0.00649784	0.00762441	0	
0.0414913	0.00745262	0	
0.0154053	0.00721085	0	
0.00204413	0.00702634	0	
0.000135397	0.00688	0	
0.0274939	0.00696272	0	
0.0351289	0.00686092	0	
-0.00495456	0.0069309	0	
-0.0189519	0.0069309	0	
0.0249489	0.00698816	0	
0.0268577	0.00705179	0	
0.00204413	0.00707088	0	
-0.013862	0.00712814	0	
0.0103153	0.00715995	0	
0.0395826	0.00724105	0	
0.00458911	0.00710744	0	
-0.00177334	0.00698019	0	
0.00904282	0.00727923	0	
0.0325839	0.00726014	0	
0.014769	0.0072156	0	
-0.0132257	0.00728559	0	
0.0141328	0.00731104	0	
0.0408551	0.00739214	0	
0.00204413	0.00756392	0	
-0.0265869	0.0077039	0	
0.012224	0.0077039	0	
0.0332201	0.00778661	0	
-0.000500848	0.00801566	0	
-0.013862	0.00819381	0	
-0.00749954	0.00828288	0	
0.0338564	0.00828288	0	
0.00840658	0.00853738	0	
-0.00622705	0.00871553	0	
-0.0144982	0.00891912	0	
0.0306751	0.00899547	0	
0.0249489	0.00917998	0	
-0.00559081	0.00920543	0	
-0.013862	0.00924997	0	
0.0058616	0.00943448	0	
0.051035	0.00943448	0	
-0.013862	0.00957446	0	
-0.0342218	0.00965081	0	
0.0338564	0.00949174	0	
0.0446725	0.00951558	0	
-0.00431832	0.00977008	0	
0.00777033	0.00960466	0	
-0.00749954	0.0098337	0	
0.0395826	0.00991642	0	
0.0109516	0.0101009	0	
-0.0189519	0.0101964	0	
0.000771642	0.0103236	0	
0.0274939	0.0105081	0	
0.00268038	0.0106926	0	
-0.0125895	0.0110044	0	
-0.0132257	0.0112334	0	
0.0300389	0.0111253	0	
0.0236765	0.0112827	0	
-0.0125895	0.0115372	0	
-0.0100445	0.0115118	0	
0.0364014	0.0114609	0	
0.019859	0.0113718	0	
-0.00304583	0.0115881	0	
-0.0202244	0.0116199	0	
0.000771642	0.0119317	0	
0.0421276	0.0120001	0	
0.0134965	0.0118665	0	
-0.0253144	0.0121591	0	
0.00777033	0.0123564	0	
0.0383101	0.0124375	0	
0.0230402	0.0121957	0	
-0.0291319	0.0124247	0	
0.00140789	0.0124375	0	
0.0344926	0.0125202	0	
0.000135397	0.0125774	0	
-0.0304044	0.0127556	0	
-0.00749954	0.0129019	0	
0.0287664	0.0130864	0	
-0.0068633	0.0132582	0	
-0.00495456	0.0133982	0	
0.00331662	0.0134682	0	
0.0357651	0.0134555	0	
0.00840658	0.0135636	0	
0.00331662	0.0136527	0	
-0.00813579	0.0138436	0	
0.0243127	0.0139454	0	
0.0255852	0.0141728	0	
0.000771642	0.01437	0	
-0.0189519	0.01437	0	
0.0389463	0.0142237	0	
0.0313114	0.0143621	0	
0.0192227	0.0142539	0	
-0.0354943	0.014343	0	
-0.00368207	0.0145848	0	
0.0389463	0.0145275	0	
-0.00749954	0.0144766	0	
-0.0329493	0.0146802	0	
-0.0170432	0.0149665	0	
0.0185865	0.0152385	0	
-0.00940828	0.0153212	0	
-0.011317	0.0153594	0	
-0.00113709	0.0154357	0	
0.00904282	0.0157602	0	
0.0300389	0.0156139	0	
0.000771642	0.0156266	0	
0.00395287	0.0155884	0	
0.0440363	0.015423	0	
0.0179503	0.0155948	0	
0.0268577	0.0152766	0	
-0.0119533	0.0152067	0	
0.0204952	0.0152512	0	
0.0364014	0.0151558	0	
-0.0144982	0.0153212	0	
-0.0195882	0.0153784	0	
0.000771642	0.0154739	0	
0.0243127	0.0156266	0	
-0.00240958	0.0156966	0	
-0.0342218	0.0160211	0	
0.000771642	0.0161038	0	
0.0414913	0.0160147	0	
-0.00622705	0.0162247	0	
-0.0183157	0.0162756	0	
-0.00177334	0.0164346	0	
0.0300389	0.0165428	0	
-0.00559081	0.0166191	0	
-0.0284956	0.0166382	0	
0.00840658	0.0166764	0	
0.0230402	0.0167782	0	
0.0192227	0.016581	0	
-0.00304583	0.0164728	0	
-0.00559081	0.0164537	0	
0.0306751	0.0164855	0	
0.0141328	0.0164283	0	
-0.00749954	0.016441	0	
-0.013862	0.0164346	0	
0.0230402	0.016511	0	
0.0179503	0.016581	0	
0.00458911	0.0164792	0	
-0.0354943	0.0166955	0	
0.0115878	0.0166382	0	
0.0567612	0.0166955	0	
0.00395287	0.0165173	0	
-0.0157707	0.0163328	0	
0.00967907	0.0165746	0	
0.0529437	0.0165508	0	
-0.00431832	0.0165508	0	
-0.0157707	0.0167862	0	
0.0128603	0.0165826	0	
0.0427638	0.0165508	0	
-0.0132257	0.0167925	0	
-0.0119533	0.0167225	0	
0.00204413	0.0167098	0	
0.0204952	0.0167798	0	
-0.00113709	0.016818	0	
0.0109516	0.0165826	0	
0.00458911	0.0164044	0	
0.0370376	0.0163344	0	
0.00458911	0.0165253	0	
-0.00113709	0.0164108	0	
0.000135397	0.016309	0	
0.0497625	0.0161754	0	
0.0300389	0.0160736	0	
-0.0176795	0.0162199	0	
-0.0170432	0.0161881	0	
0.0141328	0.0160545	0	
0.0243127	0.0162326	0	
-0.00495456	0.0164171	0	
-0.0431293	0.0165953	0	
0.00840658	0.0165889	0	
0.0274939	0.0166971	0	
-0.013862	0.0170661	0	
-0.0291319	0.0170661	0	
-0.00749954	0.0171552	0	
0.0402188	0.0170979	0	
0.00649784	0.0170343	0	
-0.0214969	0.0169452	0	
-0.00304583	0.0169007	0	
0.0325839	0.0168625	0	
0.0160415	0.0166335	0	
-0.00495456	0.0166335	0	
-0.0202244	0.0168689	0	
0.0319476	0.016907	0	
0.022404	0.0167671	0	
-0.0068633	0.0168689	0	
-0.0068633	0.0168561	0	
0.0192227	0.016907	0	
0.019859	0.0169643	0	
-0.0068633	0.0170407	0	
-0.0125895	0.016977	0	
0.0281302	0.0170852	0	
0.0262214	0.0171361	0	
-0.00177334	0.0173461	0	
-0.0144982	0.0171361	0	
0.0179503	0.0169198	0	
0.0414913	0.0168943	0	
0.00967907	0.0167225	0	
-0.0068633	0.0164617	0	
0.0134965	0.0161563	0	
0.0491262	0.0158509	0	
0.000771642	0.0157491	0	
-0.0278594	0.0159145	0	
0.0115878	0.0157873	0	
0.0408551	0.0154691	0	
-0.00559081	0.0158254	0	
-0.0202244	0.0160354	0	
-0.0157707	0.0162326	0	
0.045945	0.0162135	0	
0.0141328	0.0162517	0	
-0.00940828	0.0166144	0	
-0.00368207	0.0165317	0	
0.0262214	0.0164744	0	
0.0300389	0.016538	0	
-0.0100445	0.0164935	0	
-0.016407	0.0164617	0	
0.0236765	0.0162326	0	
0.0236765	0.016239	0	
0.00140789	0.0162008	0	
-0.00559081	0.0159145	0	
0.0204952	0.0157173	0	
0.0332201	0.0158	0	
-0.00177334	0.0157554	0	
-0.011317	0.0156855	0	
0.0115878	0.0155518	0	
0.0446725	0.0154055	0	
-0.00113709	0.015361	0	
-0.013862	0.0152146	0	
0.00140789	0.0152846	0	
0.0376738	0.0151383	0	
0.0109516	0.015221	0	
-0.00622705	0.0152528	0	
-0.00940828	0.015291	0	
0.0605787	0.0152035	0	
0.0325839	0.015019	0	
-0.00877203	0.0150317	0	
-0.0068633	0.0149618	0	
0.0503987	0.0146961	0	
0.0408551	0.0144671	0	
-0.00622705	0.0145753	0	
-0.00877203	0.014308	0	
0.0243127	0.0141808	0	
0.0383101	0.0142301	0	
-0.00113709	0.014281	0	
-0.0176795	0.0143001	0	
0.0344926	0.0140519	0	
0.0313114	0.0142094	0	
0.00395287	0.0141267	0	
-0.00622705	0.0140312	0	
0.00649784	0.0140948	0	
0.0370376	0.0141521	0	
0.00395287	0.0139803	0	
-0.0170432	0.0140312	0	
0.000135397	0.0140503	0	
0.0364014	0.0138912	0	
0.012224	0.0137576	0	
-0.013862	0.0140058	0	
-0.00240958	0.0140758	0	
0.0274939	0.0141712	0	
0.0446725	0.0137704	0	
-0.0151345	0.0139103	0	
-0.0183157	0.0140948	0	
0.0325839	0.0142666	0	
0.0351289	0.0142157	0	
0.00777033	0.0139612	0	
-0.0221332	0.0140121	0	
0.0134965	0.0140185	0	
0.0344926	0.0139167	0	
0.000135397	0.0138658	0	
-0.0208607	0.0136431	0	
0.0230402	0.0134968	0	
0.0453088	0.0133186	0	
-0.0100445	0.0132805	0	
-0.0144982	0.0131341	0	
0.0166778	0.0128923	0	
0.05358	0.0128303	0	
0.0128603	0.0127667	0	
-0.0221332	0.0127731	0	
0.012224	0.0126204	0	
0.0351289	0.0125949	0	
0.019859	0.0125567	0	
-0.0176795	0.012684	0	
0.00395287	0.0124422	0	
0.0395826	0.0123659	0	
0.00967907	0.0124931	0	
-0.00559081	0.0124804	0	
-0.011317	0.0125249	0	
0.0351289	0.0123659	0	
0.0217677	0.0123468	0	
0.0160415	0.0121177	0	
-0.0284956	0.0122768	0	
0.017314	0.012385	0	
0.0427638	0.0122195	0	
0.000135397	0.0122004	0	
-0.0221332	0.0122768	0	
0.0192227	0.0122641	0	
0.0332201	0.0123468	0	
0.00268038	0.0124168	0	
-0.0170432	0.0125186	0	
0.0134965	0.0125186	0	
0.0402188	0.0126076	0	
0.00904282	0.0125249	0	
-0.0221332	0.0124677	0	
0.0134965	0.0124486	0	
0.0453088	0.012404	0	
-0.00113709	0.0123595	0	
-0.0125895	0.0122832	0	
-0.00877203	0.0122132	0	
0.0478538	0.0121941	0	
0.0128603	0.0122068	0	
-0.0106808	0.0122195	0	
-0.00304583	0.0122132	0	
0.0287664	0.0121877	0	
0.0281302	0.0122068	0	
0.00268038	0.0120796	0	
0.000771642	0.0119078	0	
0.0376738	0.0117678	0	
0.0376738	0.0116278	0	
-0.00431832	0.0116851	0	
-0.0195882	0.0118251	0	
0.0338564	0.0116915	0	
0.045945	0.0115642	0	
-0.00940828	0.0116406	0	
-0.0380393	0.0119078	0	
0.0141328	0.0118823	0	
0.0529437	0.0118585	0	
0.0128603	0.0117185	0	
-0.0405843	0.0119857	0	
0.000771642	0.0119921	0	
0.0421276	0.0119476	0	
0.012224	0.0119348	0	
-0.0240419	0.012113	0	
-0.00240958	0.012043	0	
0.0281302	0.0121559	0	
0.0204952	0.0122768	0	
0.00268038	0.0121623	0	
-0.00177334	0.0121114	0	
0.0268577	0.0123388	0	
0.0255852	0.0124915	0	
0.00458911	0.0123833	0	
-0.0208607	0.0125042	0	
0.0192227	0.0125551	0	
0.0287664	0.0126506	0	
-0.00559081	0.0126951	0	
-0.0253144	0.0127715	0	
0.0281302	0.0128351	0	
0.0389463	0.0127587	0	
-0.00431832	0.0128414	0	
-0.00877203	0.0128669	0	
0.00713409	0.0128605	0	
0.0440363	0.0127905	0	
-0.00431832	0.0128733	0	
-0.0106808	0.0128096	0	
0.000135397	0.0128096	0	
0.0306751	0.0128669	0	
0.012224	0.0128669	0	
0.000771642	0.0127206	0	
-0.000500848	0.0127015	0	
0.0243127	0.0127333	0	
0.0141328	0.0130387	0	
-0.00431832	0.0129305	0	
-0.0100445	0.0128478	0	
0.0294027	0.0128796	0	
0.0376738	0.0128542	0	
-0.0157707	0.0130896	0	
-0.0119533	0.0129878	0	
0.0217677	0.0129051	0	
0.0414913	0.0128351	0	
0.0185865	0.0126506	0	
-0.011317	0.0125551	0	
-0.00622705	0.0128478	0	
0.0383101	0.0129178	0	
0.00904282	0.0127269	0	
-0.00940828	0.012676	0	
0.00777033	0.0127651	0	
0.0249489	0.0129798	0	
0.0192227	0.0129162	0	
-0.011317	0.012808	0	
-0.016407	0.0130943	0	
0.0306751	0.0131389	0	
0.0141328	0.0131961	0	
0.0103153	0.0129162	0	
-0.0259506	0.0132152	0	
0.0325839	0.0132852	0	
0.00331662	0.0133488	0	
-0.00877203	0.0133806	0	
0.000135397	0.0132661	0	
0.012224	0.0134952	0	
0.0204952	0.0135079	0	
-0.00304583	0.0136988	0	
-0.0151345	0.0135652	0	
0.0160415	0.0135779	0	
0.0281302	0.0137242	0	
0.012224	0.0136033	0	
-0.013862	0.0135206	0	
0.0179503	0.0135333	0	
0.0395826	0.0134697	0	
-0.00240958	0.0135206	0	
-0.013862	0.0134888	0	
0.0134965	0.0134888	0	
0.0446725	0.0134443	0	
-0.00304583	0.0135652	0	
-0.0329493	0.0136733	0	
0.00777033	0.0137306	0	
0.0402188	0.0137815	0	
0.0058616	0.0137115	0	
0.00967907	0.0134888	0	
-0.011317	0.0135143	0	
0.0383101	0.0136097	0	
0.0255852	0.0134824	0	
-0.0100445	0.0134761	0	
0.0103153	0.0133425	0	
0.0249489	0.0133806	0	
0.0319476	0.0133425	0	
0.00522536	0.013317	0	
-0.0316768	0.0136415	0	
0.0230402	0.0137878	0	
0.0383101	0.0137815	0	
0.00204413	0.0137178	0	
-0.016407	0.013686	0	
0.00395287	0.0139851	0	
0.0421276	0.0140232	0	
0.00777033	0.0138515	0	
-0.0189519	0.0136606	0	
-0.00177334	0.0138196	0	
0.0344926	0.0139453	0	
0.00713409	0.0140025	0	
-0.013862	0.0137353	0	
0.00395287	0.0137035	0	
0.0287664	0.0138371	0	
-0.00240958	0.0139835	0	
-0.00431832	0.0137862	0	
0.00649784	0.0136971	0	
0.0313114	0.0136653	0	
0.0154053	0.0137162	0	
-0.00431832	0.0137862	0	
-0.016407	0.0139326	0	
0.0255852	0.0139453	0	
0.0281302	0.0139198	0	
0.00331662	0.0139326	0	
-0.016407	0.013888	0	
0.0204952	0.0138753	0	
0.0249489	0.0139135	0	
-0.00240958	0.0138817	0	
-0.0106808	0.0137353	0	
0.00713409	0.0139453	0	
0.0472175	0.0138626	0	
-0.00813579	0.0139007	0	
-0.013862	0.0139516	0	
-0.00431832	0.0140662	0	
0.0383101	0.0141234	0	
0.00331662	0.0140471	0	
-0.0246782	0.0141871	0	
0.0134965	0.0140534	0	
0.0376738	0.0139835	0	
0.00268038	0.0140789	0	
-0.00749954	0.0141616	0	
0.0154053	0.0140025	0	
0.0281302	0.0139644	0	
0.00395287	0.0140662	0	
-0.00113709	0.0140344	0	
-0.0265869	0.0141998	0	
0.0351289	0.0141425	0	
0.00268038	0.0144925	0	
-0.00622705	0.014397	0	
-0.0170432	0.0144479	0	
0.0179503	0.0144861	0	
0.0427638	0.0144734	0	
0.00331662	0.0146261	0	
-0.0170432	0.0146833	0	
0.0262214	0.0143588	0	
0.0268577	0.0144734	0	
-0.0144982	0.0147088	0	
-0.00368207	0.0146515	0	
0.00458911	0.0146833	0	
0.0179503	0.0147533	0	
-0.000500848	0.0149506	0	
-0.0157707	0.0149951	0	
0.00458911	0.0147851	0	
0.0274939	0.0148169	0	
0.0103153	0.0148551	0	
-0.00940828	0.0150524	0	
0.00522536	0.0147406	0	
0.0370376	0.0146961	0	
-0.013862	0.0148678	0	
-0.0157707	0.0149378	0	
0.00268038	0.0149124	0	
0.0249489	0.0147851	0	
0.00840658	0.014906	0	
-0.0106808	0.0149824	0	
-0.0189519	0.0150205	0	
0.0179503	0.0150015	0	
0.0332201	0.0149506	0	
0.00904282	0.0149824	0	
-0.0393118	0.0152369	0	
0.0192227	0.0152241	0	
0.0421276	0.0151987	0	
-0.00877203	0.0152623	0	
-0.0253144	0.0153768	0	
0.00268038	0.015485	0	
0.0376738	0.015555	0	
-0.00495456	0.0155741	0	
-0.0195882	0.0154405	0	
0.00140789	0.0155041	0	
0.0294027	0.0156122	0	
0.0128603	0.0155423	0	
-0.0125895	0.0157649	0	
0.0109516	0.0155423	0	
0.0427638	0.0154977	0	
0.0294027	0.0154595	0	
0.0179503	0.0151796	0	
-0.0253144	0.0155359	0	
0.045945	0.0153259	0	
0.0300389	0.015345	0	
-0.00749954	0.0154723	0	
-0.0183157	0.0153387	0	
0.012224	0.0154468	0	
0.0357651	0.0154723	0	
0.00458911	0.0154468	0	
0.0128603	0.0151542	0	
0.0586699	0.0147804	0	
0.0764848	0.0149665	0	
0.0166778	0.0148774	0	
0.0058616	0.0146293	0	
0.0414913	0.0141966	0	
0.0268577	0.014273	0	
-0.0125895	0.0144702	0	
-0.0863939	0.0151955	0	
-0.0329493	0.0155646	0	
-0.0189519	0.0160418	0	
-0.0501279	0.0165189	0	
-0.0494917	0.0169707	0	
-0.0514004	0.0175497	0	
0.00967907	0.017766	0	
-0.000500848	0.017925	0	
-0.0106808	0.0179887	0	
-0.0240419	0.018065	0	
0.0313114	0.0180078	0	
0.0236765	0.0180523	0	
0.00268038	0.0180587	0	
-0.0253144	0.0181477	0	
0.0204952	0.0181477	0	
0.0325839	0.0180714	0	
0.000135397	0.0180459	0	
-0.0227694	0.0181668	0	
0.022404	0.0180141	0	
0.0421276	0.018065	0	
-0.00749954	0.0180587	0	
-0.0151345	0.0180714	0	
0.0109516	0.0179187	0	
0.04849	0.0178169	0	
-0.00877203	0.0179378	0	
-0.0157707	0.0178487	0	
0.012224	0.0178614	0	
0.0306751	0.0179314	0	
-0.000500848	0.0179632	0	
0.0058616	0.0178296	0	
0.00967907	0.0178869	0	
0.0262214	0.017906	0	
0.00904282	0.0178551	0	
0.0141328	0.0177024	0	
0.00331662	0.0174033	0	
0.0357651	0.017397	0	
0.107661	0.0175004	0	
0.0917546	0.0173556	0	
0.084756	0.0170328	0	
0.051035	0.0167226	0	
0.129929	0.0174496	0	
-0.0157707	0.0176404	0	
0.0351289	0.0171187	0	
0.0313114	0.0170678	0	
-0.0603079	0.0179395	0	
-0.0927563	0.018722	0	
-0.0895751	0.019581	0	
-0.0634891	0.0202618	0	
-0.013862	0.0205799	0	
-0.0144982	0.0207199	0	
-0.0291319	0.0208535	0	
-0.00877203	0.0209871	0	
0.00777033	0.0211843	0	
-0.0068633	0.0213561	0	
-0.0151345	0.0214134	0	
-0.0259506	0.0217251	0	
-0.0068633	0.0221641	0	
-0.037403	0.0223995	0	
-0.0456742	0.0226986	0	
-0.0202244	0.0229276	0	
0.0128603	0.0230485	0	
-0.00304583	0.023163	0	
-0.00877203	0.0231439	0	
-0.0132257	0.0230867	0	
0.0243127	0.0230231	0	
0.0313114	0.0230421	0	
0.00268038	0.0231058	0	
-0.0195882	0.0229085	0	
0.0243127	0.0228576	0	
0.0402188	0.0228767	0	
0.000771642	0.0227813	0	
-0.0144982	0.0226731	0	
0.0134965	0.022565	0	
0.0408551	0.0225332	0	
0.00649784	0.0224186	0	
-0.016407	0.0223868	0	
0.00840658	0.0223168	0	
0.0446725	0.0221641	0	
0.0128603	0.0221641	0	
-0.0068633	0.0221069	0	
0.00204413	0.0221959	0	
0.0497625	0.022126	0	
0.0325839	0.0220941	0	
-0.0100445	0.0223741	0	
0.012224	0.0219987	0	
0.0701223	0.0221594	0	
0.0803022	0.0222628	0	
0.0523075	0.0217109	0	
0.0115878	0.0214118	0	
0.0828472	0.0213625	0	
0.0885734	0.0216059	0	
0.0370376	0.0212814	0	
-0.00940828	0.0215041	0	
-0.0603079	0.0225205	0	
-0.00431832	0.0227988	0	
-0.0507642	0.0234733	0	
-0.0908476	0.0244404	0	
-0.0730328	0.0255856	0	
-0.0272231	0.0261264	0	
-0.039948	0.0264	0	
-0.0469467	0.0260055	0	
0.00140789	0.025662	0	
0.0376738	0.0250957	0	
0.012224	0.0244722	0	
0.00777033	0.0238996	0	
0.000135397	0.0233842	0	
0.0402188	0.0230788	0	
0.0179503	0.0228943	0	
0.00904282	0.022697	0	
-0.013862	0.0225953	0	
0.0453088	0.0224553	0	
0.0332201	0.0223598	0	
-0.0157707	0.0225444	0	
-0.00113709	0.0223026	0	
0.0306751	0.0222008	0	
0.0313114	0.0222135	0	
-0.000500848	0.0222199	0	
-0.0208607	0.0222008	0	
0.0166778	0.022258	0	
0.0434	0.0222453	0	
0.00204413	0.0221499	0	
-0.0176795	0.0221753	0	
0.0166778	0.0221181	0	
0.0325839	0.0222771	0	
0.0166778	0.0220226	0	
-0.0106808	0.0219717	0	
0.0325839	0.0217681	0	
0.0561249	0.0216361	0	
0.0472175	0.0211589	0	
0.00458911	0.0211717	0	
-0.00113709	0.0212798	0	
0.0554887	0.0210969	0	
0.0134965	0.0210524	0	
-0.011317	0.0213069	0	
-0.0202244	0.0215423	0	
0.0103153	0.0217968	0	
-0.00431832	0.0217634	0	
-0.0151345	0.0219972	0	
-0.0170432	0.0223201	0	
0.0319476	0.0224902	0	
0.0274939	0.021916	0	
0.00458911	0.0217124	0	
-0.00495456	0.0221132	0	
0.0211315	0.022215	0	
0.0491262	0.0211207	0	
-0.00495456	0.0202427	0	
-0.0170432	0.0195174	0	
0.0154053	0.0187284	0	
0.0542162	0.0181319	0	
0.00904282	0.0178965	0	
-0.00622705	0.0176675	0	
0.0204952	0.0173748	0	
0.0421276	0.0170312	0	
-0.00113709	0.016974	0	
0.0141328	0.0166813	0	
0.0230402	0.0161914	0	
0.0675773	0.0157985	0	
0.0230402	0.0151941	0	
-0.00177334	0.0147551	0	
0.0211315	0.0143415	0	
0.0453088	0.0140171	0	
0.0236765	0.0137498	0	
-0.00177334	0.0136798	0	
-0.0265869	0.0138135	0	
0.0058616	0.013998	0	
0.0402188	0.0139089	0	
0.00268038	0.0139089	0	
-0.0354943	0.014068	0	
0.0274939	0.0140361	0	
0.0319476	0.0141189	0	
0.00395287	0.014087	0	
-0.013862	0.0140807	0	
0.00204413	0.0141952	0	
0.0332201	0.0142716	0	
-0.00559081	0.0143924	0	
-0.0221332	0.0144497	0	
0.00904282	0.0144433	0	
0.0351289	0.0145388	0	
0.0141328	0.0145261	0	
0.00140789	0.0144433	0	
0.0115878	0.0143479	0	
0.0605787	0.0144513	0	
0.0217677	0.0145595	0	
-0.0170432	0.0146295	0	
-0.000500848	0.0147567	0	
0.0306751	0.0147487	0	
0.0414913	0.0145308	0	
0.00649784	0.0149428	0	
-0.0240419	0.015299	0	
0.0287664	0.0151829	0	
0.0434	0.0148632	0	
0.012224	0.0151113	0	
-0.00431832	0.0150604	0	
0.0306751	0.0141506	0	
0.0491262	0.0136161	0	
-0.00749954	0.0131835	0	
-0.0208607	0.0124836	0	
0.0058616	0.0116947	0	
0.0376738	0.0110457	0	
-0.00368207	0.010683	0	
-0.0132257	0.0103458	0	
-0.011317	0.0104731	0	
0.0281302	0.0105685	0	
0.0255852	0.0104349	0	
0.00458911	0.0104667	0	
0.0058616	0.0104095	0	
0.0631236	0.0104429	0	
0.0332201	0.0102902	0	
-0.0068633	0.0104492	0	
-0.0272231	0.0105829	0	
0.019859	0.0108374	0	
0.0357651	0.0108119	0	
-0.00813579	0.0107356	0	
-0.0348581	0.0110728	0	
0.00458911	0.0113336	0	
0.0185865	0.0114609	0	
-0.011317	0.011569	0	
-0.0068633	0.0114291	0	
0.0160415	0.0114354	0	
0.0357651	0.0115118	0	
-0.00813579	0.0116136	0	
-0.0265869	0.0117027	0	
0.00458911	0.0118235	0	
0.0389463	0.0117599	0	
0.000771642	0.011919	0	
-0.0297681	0.0121098	0	
0.00777033	0.012358	0	
0.0529437	0.0123262	0	
0.0306751	0.0124916	0	
0.0249489	0.012288	0	
0.0179503	0.0120971	0	
0.0383101	0.0121591	0	
0.0179503	0.0121146	0	
0.0217677	0.0117838	0	
-0.0291319	0.0118728	0	
0.00904282	0.0118856	0	
0.012224	0.0117201	0	
-0.0297681	0.0118665	0	
-0.042493	0.012121	0	
0.00331662	0.0124073	0	
0.0262214	0.01242	0	
0.0115878	0.01235	0	
-0.0125895	0.0124264	0	
0.0211315	0.0124264	0	
0.0917546	0.0128352	0	
0.0389463	0.0123962	0	
0.0357651	0.0118681	0	
0.0580337	0.0116025	0	
0.105116	0.0121115	0	
0.0281302	0.0119206	0	
-0.0520367	0.0123787	0	
0.0236765	0.0123469	0	
0.0408551	0.0123596	0	
-0.0577629	0.0129259	0	
-0.0354943	0.0134221	0	
-0.0132257	0.0137848	0	
-0.0100445	0.0142095	0	
-0.00877203	0.0145276	0	
0.00395287	0.0144703	0	
-0.0291319	0.014973	0	
0.0344926	0.0150811	0	
-0.0253144	0.015571	0	
-0.00749954	0.0156283	0	
-0.0533092	0.0158955	0	
-0.00877203	0.0160418	0	
0.00331662	0.0164109	0	
-0.00495456	0.0164872	0	
-0.0323131	0.0164554	0	
0.012224	0.0166081	0	
0.0548525	0.0164761	0	
-0.00749954	0.0165906	0	
-0.016407	0.0166161	0	
0.0115878	0.0165206	0	
0.0497625	0.0163552	0	
0.00522536	0.0162471	0	
0.00713409	0.0159544	0	
0.0243127	0.0158017	0	
0.0548525	0.0157015	0	
0.0179503	0.0156633	0	
0.0268577	0.0154088	0	
0.0414913	0.0151098	0	
0.143927	0.0159433	0	
0.0949359	0.0161103	0	
0.0516712	0.0154566	0	
0.119113	0.0156427	0	
0.074576	0.0156952	0	
0.103843	0.0161486	0	
0.0236765	0.0159768	0	
0.0236765	0.0154996	0	
0.107025	0.0158575	0	
-0.0068633	0.0163601	0	
0.0402188	0.0160802	0	
0.0160415	0.0158766	0	
-0.110571	0.0172891	0	
0.152198	0.0183023	0	
0.0612149	0.0178395	0	
0.0548525	0.0171794	0	
0.00713409	0.0171666	0	
0.0663049	0.0172064	0	
-0.0195882	0.0173655	0	
-0.0558541	0.0177918	0	
-0.0717603	0.0183962	0	
-0.118206	0.0198596	0	
-0.178649	0.0219019	0	
-0.188193	0.0238297	0	
-0.192011	0.0258085	0	
-0.153836	0.0277156	0	
-0.14302	0.029478	0	
-0.0908476	0.0303178	0	
-0.00431832	0.0300888	0	
0.0542162	0.0298295	0	
0.0605787	0.029793	0	
0.0249489	0.0294621	0	
0.0580337	0.0286939	0	
0.0319476	0.0284203	0	
0.00713409	0.0285348	0	
0.0440363	0.0279813	0	
0.00140789	0.0278986	1.08832	
0.0058616	0.0280004	4.45424	
0.0911184	0.0282692	7.25918	
0.0453088	0.0277348	10.0641	
0.0236765	0.0272321	13.4301	
0.0809385	0.0270874	16.235	
0.116568	0.0276425	19.0399	
0.0414913	0.0272353	21.8449	
0.074576	0.0266834	24.0888	
0.24	0.0281611	26.3328	
0.317622	0.0308079	28.5767	
0.394607	0.0340607	30.8207	
0.117204	0.0344823	33.0646	
0.108933	0.0347511	35.3086	
0.280719	0.0369414	37.5525	
0.206279	0.0381837	39.2355	
-0.162743	0.0400288	41.4794	
0.00458911	0.0396916	43.7234	
0.0573974	0.039356	45.4064	
-0.179286	0.0412711	47.0893	
-0.237184	0.0433452	49.3333	
-0.099755	0.0439179	51.0162	
0.20437	0.0449947	52.6992	
0.199916	0.0462561	54.9432	
-0.178013	0.0481521	57.1871	
0.0325839	0.0477004	59.4311	
-0.23782	0.0502899	62.236	
-0.100391	0.0513763	65.6019	
-0.157653	0.0533423	69.5288	
-0.200918	0.0557091	74.0168	
-0.246728	0.058596	79.0656	
-0.165288	0.0601978	84.6755	
-0.244183	0.0629209	90.8464	
-0.172287	0.0641234	97.5782	
0.0281302	0.0640788	104.871	
0.197371	0.0654611	112.725	
0.0529437	0.0644129	120.579	
0.0472175	0.0635858	128.994	
0.184646	0.0643	137.969	
0.0115878	0.0640837	147.506	
-0.00304583	0.0640264	157.604	
0.133747	0.0644034	167.702	
0.0319476	0.0637926	178.361	
-0.191374	0.0660513	189.019	
-0.171014	0.0675083	199.678	
-0.0590354	0.0680236	210.898	
-0.120115	0.0686917	222.118	
0.019859	0.0684054	233.337	
0.0962084	0.0684006	244.557	
0.15856	0.0689367	255.777	
0.0058616	0.068555	266.436	
0.0548525	0.0682257	277.655	
0.210732	0.0697845	288.875	
0.140109	0.0701106	300.095	
0.439144	0.073338	311.315	
-0.0590354	0.0740442	323.095	
-0.0100445	0.0746423	334.315	
0.166832	0.0753629	346.096	
-0.0749415	0.0761836	357.316	
0.0548525	0.0759753	369.096	
0.250816	0.0779349	380.316	
0.0694861	0.0778093	392.097	
-0.0730328	0.0788082	403.878	
-0.0533092	0.0797562	415.097	
0.574028	0.0840572	426.878	
0.114659	0.0842544	439.22	
-0.0647616	0.0853853	451.562	
0.0211315	0.0849829	463.903	
0.189736	0.0861345	476.806	
-0.0456742	0.0865528	490.27	
-0.149382	0.0882834	504.295	
-0.441419	0.0929343	518.88	
-0.384156	0.0967057	534.027	
-0.311625	0.0997533	550.296	
-0.233366	0.102489	566.564	
-0.268996	0.105339	583.955	
-0.275995	0.106994	601.906	
-0.122024	0.107692	620.98	
-0.130931	0.109389	641.176	
-0.111844	0.110959	661.932	
0.100026	0.111031	684.372	
0.192281	0.11229	707.372	
-0.101664	0.113111	731.495	
0.123567	0.112788	756.739	
0.371702	0.114788	783.106	
0.176375	0.114369	810.033	
0.180829	0.113391	838.082	
-0.178013	0.113289	866.693	
-0.0959376	0.112329	895.303	
0.0694861	0.110485	923.913	
0.127384	0.109329	952.524	
-0.184376	0.110264	981.134	
-0.243546	0.112656	1008.62	
-0.0615803	0.11373	1036.67	
0.223457	0.115359	1063.6	
0.188464	0.116493	1089.97	
-0.0253144	0.117166	1116.33	
-0.128386	0.118769	1141.58	
0.41115	0.121952	1166.82	
0.488771	0.12628	1191.5	
0.114659	0.126441	1215.07	
0.135019	0.126849	1238.63	
-0.0176795	0.127115	1261.07	
0.259723	0.129165	1282.95	
0.0942996	0.129345	1304.82	
-0.46496	0.134185	1325.58	
-0.0921201	0.134941	1345.78	
-0.0596716	0.135953	1365.41	
-0.185012	0.138057	1385.05	
-0.0641253	0.137298	1405.24	
-0.0628528	0.13575	1424.88	
-0.41915	0.136996	1445.07	
0.0860284	0.136684	1465.27	
0.418784	0.139783	1486.02	
0.126748	0.138243	1507.34	
-0.310988	0.14029	1529.22	
-0.165288	0.140315	1551.1	
-0.151291	0.141874	1572.98	
-0.11248	0.143425	1595.42	
-0.0202244	0.141834	1617.86	
-0.178013	0.141243	1640.3	
-0.202827	0.142274	1662.73	
0.079666	0.141026	1684.61	
-0.0953013	0.14098	1706.49	
0.20946	0.140295	1727.81	
0.0904822	0.140525	1748.57	
0.37552	0.140902	1769.32	
0.415603	0.143055	1790.08	
0.424511	0.144723	1810.27	
0.549851	0.147212	1829.91	
-0.0323131	0.145068	1849.54	
-0.116934	0.144585	1868.62	
-0.15829	0.143726	1887.13	
0.0758485	0.141761	1905.08	
-0.436329	0.146406	1923.03	
-0.433784	0.14977	1939.86	
-0.456688	0.154808	1956.13	
-0.448417	0.159764	1972.4	
-0.0494917	0.159412	1988.11	
0.182101	0.160349	2003.82	
0.142018	0.160739	2019.52	
0.333528	0.162737	2035.23	
0.00331662	0.163023	2050.94	
0.0529437	0.160639	2066.65	
0.079666	0.158725	2082.91	
0.0720311	0.157855	2099.18	
0.0694861	0.156349	2115.45	
-0.0526729	0.157074	2131.72	
-0.0106808	0.157219	2147.99	
0.0682136	0.156316	2164.26	
0.0465813	0.155908	2179.97	
0.014769	0.156212	2195.67	
-0.162107	0.156726	2210.82	
-0.185648	0.158181	2225.41	
0.0134965	0.154655	2239.99	
-0.0418568	0.154483	2254.02	
-0.0456742	0.154839	2267.48	
0.0351289	0.15382	2280.94	
-0.249909	0.155569	2293.85	
0.0637599	0.155659	2306.19	
0.0911184	0.154062	2318.53	
-0.0259506	0.154626	2330.31	
0.128657	0.154182	2342.09	
0.0109516	0.15354	2353.87	
0.374884	0.151548	2365.09	
0.22982	0.1527	2376.31	
-0.0132257	0.152185	2386.41	
-0.156381	0.15396	2396.51	
0.310623	0.155169	2406.6	
0.451869	0.158231	2415.58	
0.142654	0.157163	2424	
-0.15829	0.154332	2432.41	
-0.401971	0.15451	2439.7	
0.145835	0.151852	2446.43	
-0.0265869	0.149785	2452.61	
0.0434	0.146661	2458.78	
-0.0304044	0.144205	2464.95	
-0.501862	0.148003	2471.12	
-0.0571266	0.147265	2477.29	
0.243181	0.147578	2484.02	
-0.159562	0.149174	2491.31	
-0.261361	0.150865	2499.17	
-0.344073	0.153289	2508.14	
-0.0704878	0.153758	2518.24	
-0.068579	0.151727	2528.9	
-0.0259506	0.151222	2540.12	
-0.0463105	0.150877	2553.02	
-0.0800314	0.149897	2565.93	
0.0230402	0.148708	2579.39	
-0.00431832	0.149056	2593.41	
-0.039948	0.149182	2608	
0.0923909	0.147262	2622.59	
0.272448	0.146551	2636.61	
0.447415	0.149409	2651.2	
0.0911184	0.148086	2665.78	
-0.122024	0.148421	2679.81	
-0.0514004	0.148682	2693.27	
0.0243127	0.147155	2706.17	
0.233637	0.14538	2719.07	
0.0395826	0.141096	2730.86	
-0.500589	0.145956	2742.64	
-0.139838	0.147004	2753.3	
0.0440363	0.146387	2763.39	
-0.00304583	0.14482	2772.93	
-0.11757	0.146053	2782.47	
-0.011317	0.141516	2790.88	
0.330983	0.142905	2798.74	
0.392062	0.145229	2806.03	
0.373611	0.146115	2812.76	
-0.178649	0.14726	2818.93	
0.274993	0.148381	2824.54	
-0.203463	0.146225	2829.59	
0.0605787	0.14597	2834.08	
-0.0590354	0.143373	2837.44	
-0.0717603	0.143823	2839.69	
-0.352344	0.144236	2841.37	
-0.415969	0.146743	2842.49	
0.0446725	0.144783	2842.49	
0.285809	0.145517	2841.37	
-0.244183	0.147756	2840.25	
0.074576	0.145722	2839.13	
0.295989	0.145654	2837.44	
-0.0444017	0.146301	2836.32	
-0.130295	0.146651	2835.76	
0.19928	0.146549	2835.2	
0.0421276	0.146223	2835.76	
-0.078759	0.144255	2837.44	
0.180829	0.141908	2839.13	
0.358977	0.141252	2841.93	
-0.0577629	0.137331	2844.74	
-0.158926	0.138598	2848.1	
-0.270905	0.140137	2851.47	
-0.000500848	0.138559	2855.4	
0.10957	0.138897	2859.32	
0.0357651	0.134176	2862.69	
0.082211	0.12966	2866.61	
-0.453507	0.129628	2870.54	
-0.181194	0.126956	2873.91	
0.170013	0.127161	2877.83	
0.00649784	0.126275	2881.2	
0.00204413	0.125834	2885.13	
-0.00495456	0.123549	2889.05	
0.140746	0.123989	2892.98	
0.0249489	0.12421	2896.91	
-0.239729	0.126811	2900.84	
-0.0653978	0.127745	2904.76	
0.142018	0.12847	2908.69	
0.208187	0.129025	2913.18	
0.0446725	0.128472	2917.1	
-0.190738	0.130697	2921.03	
-0.499317	0.136156	2924.96	
-0.118842	0.137492	2928.88	
-0.0571266	0.136442	2932.81	
0.0554887	0.134141	2936.18	
0.0669411	0.133945	2939.54	
-0.0533092	0.134059	2942.91	
0.188464	0.134487	2945.71	
0.357705	0.137416	2948.52	
0.543488	0.139352	2950.76	
0.136928	0.140083	2952.45	
0.0707586	0.13988	2954.13	
-0.143656	0.141057	2955.25	
-0.168469	0.142455	2955.81	
0.379974	0.145364	2956.37	
0.613475	0.14775	2956.37	
0.124203	0.146694	2956.37	
-0.166561	0.148227	2955.81	
-1.00131	0.156676	2955.25	
0.66183	0.160189	2954.69	
0.203097	0.157701	2953.57	
0.20437	0.158318	2953.57	
-0.643744	0.163173	2953.57	
-0.540036	0.164553	2954.13	
0.117841	0.164273	2955.25	
0.251452	0.165522	2957.49	
-0.116934	0.167125	2960.3	
-0.116297	0.167984	2964.23	
0.279447	0.16476	2968.71	
-0.113116	0.16532	2974.32	
-0.129022	0.165178	2981.06	
-0.235275	0.165935	2988.91	
-0.279176	0.166114	2997.32	
-0.239093	0.165064	3006.86	
-0.243546	0.166794	3016.96	
-0.296991	0.169078	3028.18	
-0.00368207	0.168856	3039.4	
0.0255852	0.168137	3051.18	
0.0949359	0.167286	3062.96	
0.0185865	0.16733	3074.74	
0.0344926	0.166942	3086.52	
0.0434	0.166109	3097.74	
0.0580337	0.165765	3108.96	
0.0491262	0.16355	3120.18	
0.216459	0.16124	3130.28	
0.409877	0.164428	3140.38	
0.317622	0.165384	3149.35	
0.284537	0.166715	3157.21	
0.584844	0.171806	3165.06	
-0.141747	0.171888	3171.79	
-0.347254	0.175756	3177.4	
-0.111844	0.171868	3182.45	
-0.292537	0.173395	3186.38	
-0.333893	0.177175	3189.18	
-0.420422	0.181349	3191.43	
-0.401971	0.184193	3192.55	
-0.0208607	0.184288	3193.67	
0.298534	0.183963	3193.67	
0.117841	0.181221	3193.67	
0.429601	0.181781	3193.67	
0.502133	0.184016	3193.67	
0.22473	0.183513	3194.23	
0.265449	0.183133	3195.35	
-0.229549	0.185823	3196.48	
0.0192227	0.18504	3198.72	
-0.321804	0.187541	3200.96	
-0.393064	0.187948	3203.21	
-0.00431832	0.183831	3205.45	
-0.216824	0.186446	3207.7	
0.287718	0.186466	3209.94	
0.393971	0.186963	3212.18	
0.611567	0.192333	3213.87	
0.0631236	0.190005	3215.55	
-0.552125	0.195082	3217.23	
0.426419	0.197043	3218.35	
0.182101	0.196871	3220.6	
-0.578211	0.203075	3222.28	
-0.687645	0.209164	3224.53	
-0.5394	0.213749	3226.77	
-0.456052	0.21572	3229.57	
-0.324986	0.218392	3232.38	
0.29917	0.218795	3235.74	
0.579754	0.220883	3239.11	
0.133111	0.221209	3242.48	
-0.359343	0.224707	3246.4	
0.323984	0.227305	3250.33	
0.335436	0.229837	3254.82	
0.115296	0.225455	3259.87	
0.230456	0.224947	3264.36	
-0.143656	0.225684	3269.97	
0.0752123	0.225501	3275.01	
0.0516712	0.225038	3280.06	
0.191009	0.225899	3285.11	
-0.0253144	0.225744	3290.16	
0.103843	0.226032	3295.21	
-0.15829	0.225218	3299.7	
-0.0666703	0.225231	3303.62	
0.112751	0.224938	3308.11	
0.311259	0.225969	3311.48	
0.252725	0.227943	3314.84	
-0.328167	0.229317	3317.65	
0.0389463	0.223934	3320.45	
0.280719	0.224553	3323.26	
0.108933	0.224071	3326.06	
0.14329	0.224949	3328.87	
-0.659014	0.23187	3331.11	
-0.27854	0.234122	3334.48	
-0.0214969	0.233452	3337.84	
-0.118842	0.232064	3341.77	
-0.210462	0.229734	3345.7	
-0.162107	0.230985	3350.75	
0.0230402	0.231047	3355.8	
-0.216188	0.231773	3361.97	
-0.246728	0.232555	3368.14	
-0.0552179	0.230308	3375.43	
0.0593062	0.224766	3383.28	
0.00904282	0.224433	3391.14	
-0.0583991	0.223352	3400.11	
0.082211	0.213161	3408.53	
0.206915	0.208612	3418.07	
0.764265	0.214223	3427.04	
0.61093	0.218289	3436.58	
0.451233	0.215364	3445.55	
-0.178013	0.211744	3454.53	
-0.162743	0.213193	3463.51	
0.279447	0.213473	3471.92	
0.231729	0.213621	3479.77	
-0.0125895	0.212583	3487.07	
-0.211734	0.212906	3493.8	
-0.0463105	0.212238	3499.41	
-0.118206	0.21213	3503.9	
-0.389246	0.21367	3507.82	
0.267994	0.212558	3511.19	
0.205006	0.211217	3513.99	
0.142654	0.209208	3516.24	
-0.12775	0.207516	3519.04	
-0.396245	0.211441	3521.85	
-0.692099	0.218618	3524.65	
-0.231458	0.220984	3528.02	
0.0783935	0.220953	3532.51	
0.0987533	0.221286	3538.12	
-0.0615803	0.222336	3544.29	
-0.037403	0.223129	3551.58	
0.227275	0.224893	3559.43	
-0.394973	0.227678	3568.97	
-0.0666703	0.225246	3579.07	
-0.0157707	0.223228	3590.29	
-0.00940828	0.221477	3602.07	
-0.225095	0.218879	3614.97	
-0.399426	0.221456	3628.44	
-0.0405843	0.218389	3642.46	
0.107661	0.217347	3657.05	
0.507223	0.218494	3671.07	
-0.0622166	0.215777	3686.22	
0.808803	0.218661	3700.8	
-0.208553	0.216727	3715.39	
-0.000500848	0.216523	3729.98	
0.376156	0.2173	3744.56	
-0.106754	0.218189	3759.15	
-0.270269	0.217595	3773.17	
-0.318623	0.21676	3786.64	
0.0930271	0.215443	3799.54	
0.256542	0.215354	3811.88	
-0.0329493	0.213388	3823.1	
-0.614477	0.219725	3833.76	
0.335436	0.218862	3843.86	
0.215822	0.216089	3852.27	
0.00522536	0.215994	3860.12	
0.430237	0.217128	3866.86	
-0.3937	0.219188	3872.47	
0.350706	0.218755	3876.95	
0.159833	0.214238	3880.32	
0.0338564	0.214268	3882.56	
0.116568	0.208912	3883.69	
0.316985	0.207818	3883.69	
-0.305898	0.210056	3883.12	
-0.238456	0.206658	3881.44	
0.0599424	0.199381	3879.2	
-0.0354943	0.194342	3876.39	
0.0968446	0.18975	3873.03	
-0.280449	0.189305	3870.22	
-0.120751	0.188521	3866.86	
0.152834	0.184251	3863.49	
0.631926	0.18924	3860.12	
-0.397518	0.189621	3857.32	
-0.553398	0.192916	3855.08	
-0.113116	0.191692	3853.39	
0.238727	0.192927	3852.27	
0.306805	0.19369	3851.71	
-0.181831	0.194072	3852.83	
-0.281085	0.197131	3854.51	
-0.23782	0.199992	3857.32	
0.0764848	0.198847	3861.25	
-0.333257	0.201926	3866.3	
0.0115878	0.201772	3871.91	
0.215186	0.201341	3878.64	
0.387608	0.20355	3885.93	
0.215822	0.204581	3893.78	
-0.0227694	0.202696	3902.2	
0.499588	0.205165	3910.05	
0.786534	0.208748	3918.47	
-0.351708	0.212655	3926.88	
-0.182467	0.212672	3934.74	
0.014769	0.212435	3942.03	
-0.41915	0.216194	3948.76	
-0.713731	0.216741	3954.37	
-0.303353	0.216989	3959.98	
-0.589027	0.222665	3964.47	
-0.0959376	0.222436	3968.4	
0.396516	0.223296	3971.2	
0.539035	0.226065	3974	
0.911874	0.234415	3976.25	
-0.614477	0.238397	3977.93	
-0.0959376	0.23689	3979.61	
0.280719	0.238145	3981.3	
0.0516712	0.238068	3982.98	
0.0274939	0.237884	3984.1	
-0.0234057	0.237534	3985.22	
-0.257544	0.240287	3986.35	
-0.143656	0.240655	3986.91	
0.0523075	0.233535	3987.47	
0.507859	0.232504	3987.47	
-0.0743052	0.229735	3986.91	
0.222185	0.229177	3986.35	
-0.298263	0.230532	3985.79	
-0.0768502	0.229506	3985.22	
-0.371432	0.231903	3984.1	
-0.146837	0.233245	3983.54	
0.00458911	0.231082	3982.98	
-0.0806677	0.231426	3982.42	
-0.0832127	0.231076	3982.98	
0.00904282	0.227093	3983.54	
0.101298	0.225426	3984.1	
0.340526	0.226781	3985.22	
0.581663	0.231171	3986.91	
0.719728	0.236091	3988.59	
0.0783935	0.231913	3990.27	
-0.0367668	0.225359	3991.96	
-0.536219	0.228407	3993.64	
-0.00177334	0.228641	3994.76	
0.0319476	0.228334	3996.44	
-0.479593	0.232514	3997.01	
-0.60557	0.238195	3997.01	
-0.15829	0.238506	3997.01	
0.0739398	0.234295	3996.44	
0.351979	0.236148	3995.88	
-0.821893	0.24421	3994.76	
0.325256	0.246368	3993.64	
0.493861	0.248056	3992.52	
0.147744	0.244539	3991.96	
-0.0984825	0.245118	3991.4	
-0.282994	0.247871	3990.83	
-0.0851214	0.24465	3990.83	
0.353888	0.246567	3990.83	
0.715911	0.245638	3991.4	
0.477955	0.247332	3991.4	
0.227275	0.2486	3991.4	
-0.853705	0.254375	3991.4	
0.16874	0.253995	3990.83	
0.240636	0.252699	3989.71	
-0.428057	0.253793	3988.59	
-0.184376	0.255707	3986.35	
0.323984	0.256381	3983.54	
0.62111	0.261263	3980.18	
-0.936417	0.264482	3976.25	
-0.54449	0.267573	3972.32	
0.721637	0.272631	3967.83	
0.147744	0.27316	3963.35	
-0.521585	0.275074	3959.42	
-0.745544	0.278592	3955.49	
-0.683828	0.282923	3952.13	
-0.332621	0.285651	3949.32	
-0.0622166	0.286612	3947.08	
0.142654	0.286873	3945.39	
0.225366	0.285957	3944.83	
0.20946	0.283992	3944.83	
0.243817	0.283046	3945.39	
0.220276	0.284649	3946.52	
0.019859	0.284096	3948.2	
0.102571	0.284153	3949.88	
0.0663049	0.281012	3951	
0.191645	0.280721	3952.13	
0.577209	0.284964	3953.25	
0.286446	0.281509	3953.25	
-0.547671	0.283011	3952.13	
0.178284	0.27826	3951	
0.201189	0.278141	3948.2	
0.169377	0.277447	3944.83	
0.55685	0.279948	3940.35	
0.86861	0.285815	3934.74	
0.673282	0.288737	3928.56	
-0.751906	0.293878	3921.83	
-0.272814	0.296841	3913.98	
0.0465813	0.293043	3906.13	
-0.113116	0.29429	3897.71	
-0.36825	0.296821	3888.73	
-0.43951	0.29834	3879.76	
-0.505043	0.302232	3870.78	
-0.428694	0.306291	3862.37	
0.318258	0.304478	3853.95	
-0.709914	0.304712	3846.66	
0.187191	0.302067	3839.93	
0.222185	0.301464	3834.88	
-0.0208607	0.30182	3830.95	
-0.407061	0.301699	3828.15	
-0.523494	0.299797	3826.47	
-0.169742	0.298461	3825.9	
0.16365	0.293207	3826.47	
0.115932	0.292407	3828.15	
0.182738	0.290269	3829.83	
-0.0583991	0.286463	3832.08	
0.3857	0.281201	3834.32	
0.0325839	0.27473	3837.12	
-0.140475	0.275176	3839.93	
-0.0647616	0.274016	3842.17	
-0.0908476	0.275408	3844.42	
0.0300389	0.275382	3846.66	
0.0453088	0.274695	3848.34	
0.435327	0.275473	3848.9	
0.594388	0.27898	3849.47	
0.90742	0.287532	3849.47	
0.149653	0.28395	3848.34	
-0.230821	0.285515	3847.22	
0.0803022	0.284096	3844.98	
0.00967907	0.281016	3842.73	
0.0739398	0.279987	3839.37	
-0.614477	0.282418	3835.44	
-0.530493	0.286254	3830.95	
-0.013862	0.286439	3825.9	
0.079666	0.285429	3820.29	
0.506586	0.288663	3814.12	
-0.836527	0.297118	3807.39	
0.270539	0.298811	3800.66	
0.755994	0.302965	3793.37	
0.198008	0.299129	3786.64	
-0.315442	0.296086	3780.46	
-0.241001	0.298712	3774.29	
-0.210462	0.300449	3769.24	
-0.047583	0.295563	3764.2	
-0.244183	0.297987	3760.83	
0.0663049	0.297969	3757.46	
0.283901	0.295012	3755.22	
-0.235275	0.291309	3752.98	
-0.181194	0.291538	3751.29	
-0.499317	0.296792	3750.17	
0.133747	0.29461	3749.05	
0.159197	0.286983	3747.93	
-0.0615803	0.285346	3747.37	
-0.104845	0.282456	3746.8	
-0.106117	0.28304	3746.24	
-0.12775	0.283332	3745.68	
-0.0583991	0.281086	3745.68	
0.0803022	0.280038	3745.68	
0.0911184	0.277411	3745.68	
-0.0514004	0.271765	3745.68	
-0.0832127	0.268818	3745.68	
0.0408551	0.267137	3745.68	
0.332255	0.260922	3745.68	
0.0949359	0.260184	3745.12	
0.468412	0.262462	3744.56	
0.252725	0.259709	3743.44	
0.212641	0.258991	3742.32	
0.30426	0.258794	3741.19	
-0.336438	0.256947	3738.95	
0.108933	0.247672	3736.71	
-0.288084	0.245108	3734.46	
-0.359979	0.242492	3731.66	
-0.00940828	0.242108	3728.29	
0.271812	0.238611	3724.93	
-0.253726	0.233693	3721	
0.0981171	0.226835	3717.07	
0.157924	0.224088	3712.58	
0.554941	0.228016	3708.1	
0.872427	0.235313	3704.17	
1.08748	0.243935	3699.68	
-0.482138	0.247661	3695.19	
-0.00113709	0.246235	3691.27	
-0.534946	0.250381	3687.9	
0.161742	0.251197	3684.54	
-0.23782	0.25355	3681.73	
-0.653288	0.26042	3678.93	
-0.778628	0.267289	3677.24	
-0.510769	0.267625	3676.12	
0.116568	0.265926	3675	
-0.320532	0.263655	3675	
-0.316078	0.266033	3675	
0.477955	0.2688	3675.56	
0.177648	0.268883	3677.24	
0.0313114	0.264002	3678.93	
-0.0596716	0.256912	3680.61	
-0.0876664	0.252056	3683.41	
-0.299536	0.247532	3686.22	
0.0631236	0.244435	3689.02	
0.0236765	0.244664	3692.39	
0.0573974	0.243107	3695.75	
0.0904822	0.23933	3698.56	
0.107661	0.235011	3701.36	
0.210096	0.231062	3703.61	
0.220912	0.227984	3705.29	
0.187828	0.22668	3706.97	
0.245726	0.221038	3708.1	
0.0516712	0.219682	3708.1	
0.470957	0.22217	3708.1	
0.606477	0.227026	3706.97	
-0.353617	0.226492	3705.85	
-0.136657	0.222624	3704.17	
0.203097	0.221957	3701.93	
-0.0259506	0.22158	3699.12	
-0.14302	0.222851	3695.75	
-0.130931	0.223333	3691.83	
0.147744	0.223226	3687.9	
0.383791	0.223207	3683.41	
-0.0844852	0.224378	3678.93	
-0.0857577	0.223831	3673.88	
0.6771	0.228954	3668.83	
-0.559124	0.233637	3664.34	
-0.615113	0.240088	3659.85	
-0.0157707	0.240699	3655.36	
-0.300172	0.240348	3651.44	
-0.448417	0.239888	3648.07	
-0.185012	0.233664	3645.83	
-0.0927563	0.234095	3643.58	
-0.12775	0.233064	3642.46	
-0.0946651	0.234208	3641.9	
0.484954	0.238154	3641.9	
0.191009	0.239325	3642.46	
0.0962084	0.233142	3643.02	
-0.0456742	0.228294	3644.71	
-0.0418568	0.228574	3645.83	
-0.300172	0.231779	3647.51	
-0.143656	0.22915	3649.19	
0.05358	0.22032	3650.88	
0.192281	0.219538	3652.56	
0.0268577	0.212709	3653.68	
0.212641	0.212855	3654.8	
-0.039948	0.210101	3655.36	
0.144563	0.208136	3655.36	
0.167468	0.206706	3655.36	
0.164287	0.206873	3655.36	
0.279447	0.206226	3654.8	
0.279447	0.208357	3654.24	
-0.0214969	0.206733	3652.56	
-0.123296	0.205613	3651.44	
0.288991	0.205691	3649.75	
0.0058616	0.20064	3647.51	
0.255906	0.201861	3645.27	
0.458868	0.204858	3642.46	
0.598842	0.209231	3639.66	
-0.596662	0.214149	3636.29	
-0.169742	0.214785	3632.92	
0.019859	0.213309	3629.56	
-0.252454	0.215249	3626.19	
0.147744	0.215924	3622.83	
0.168104	0.216694	3619.46	
-0.0291319	0.216471	3616.09	
-0.480866	0.220448	3612.73	
-0.772266	0.228579	3609.92	
0.44996	0.229756	3607.12	
0.427692	0.233083	3604.87	
0.450597	0.232905	3602.63	
-0.106754	0.232446	3601.51	
-1.03885	0.241708	3600.95	
-0.270905	0.242374	3600.95	
0.079666	0.238806	3601.51	
0.017314	0.238544	3602.63	
-0.216188	0.237825	3604.87	
-0.385429	0.238079	3607.12	
-0.0978463	0.238964	3609.92	
-0.00113709	0.237257	3613.29	
-0.188193	0.236602	3616.66	
0.129929	0.23692	3620.58	
0.210096	0.237442	3623.95	
0.304897	0.234941	3627.88	
-0.00240958	0.227241	3631.24	
-0.00559081	0.217422	3634.05	
0.022404	0.212377	3637.41	
0.251452	0.21388	3639.66	
0.301079	0.210541	3641.9	
0.499588	0.21392	3643.58	
0.358977	0.214131	3644.71	
-0.193283	0.209531	3645.27	
0.0866647	0.201611	3645.27	
0.535217	0.200856	3644.71	
-0.134112	0.202031	3643.58	
-0.0628528	0.199455	3641.9	
0.167468	0.196969	3639.66	
-0.073669	0.193926	3637.41	
0.384427	0.195993	3634.05	
-0.690826	0.203215	3630.68	
0.10957	0.202714	3627.31	
0.619202	0.207029	3623.39	
0.577209	0.208806	3619.46	
-0.638018	0.215555	3615.53	
-0.203463	0.217826	3611.61	
0.117841	0.218431	3607.68	
-0.21746	0.2207	3604.31	
-0.220005	0.222824	3600.95	
-0.582029	0.227543	3598.7	
-0.282357	0.229158	3596.46	
-0.266451	0.230944	3594.78	
-0.403244	0.233519	3594.22	
-0.111844	0.235121	3593.66	
-0.0768502	0.23218	3594.22	
-0.0545817	0.227661	3594.78	
-0.0354943	0.22448	3596.46	
0.0440363	0.222673	3598.14	
0.212005	0.222762	3600.39	
0.298534	0.224488	3603.19	
-0.0348581	0.223406	3606	
0.0860284	0.221957	3608.8	
0.469048	0.22517	3612.17	
0.3348	0.22468	3615.53	
0.164923	0.224484	3618.34	
-0.185012	0.225477	3621.14	
0.418784	0.222894	3623.39	
0.103207	0.217335	3625.07	
0.0815747	0.210999	3626.75	
-0.0253144	0.211095	3627.31	
0.129929	0.208392	3627.31	
-0.213007	0.206038	3627.31	
-0.0545817	0.204734	3626.19	
0.489408	0.2077	3625.07	
0.710185	0.212525	3623.39	
-0.304626	0.214624	3621.7	
-0.514587	0.215921	3619.46	
0.554941	0.21956	3616.66	
-0.342164	0.22302	3614.41	
-0.447781	0.227041	3612.17	
-0.351072	0.230133	3609.36	
-0.356798	0.230699	3607.12	
-0.349799	0.23276	3605.44	
-0.214279	0.235367	3603.19	
0.0192227	0.234252	3602.07	
-0.309716	0.237618	3600.95	
0.241908	0.237911	3600.39	
0.458232	0.241094	3600.39	
0.243817	0.242086	3600.95	
0.164923	0.242061	3602.07	
-0.515859	0.246576	3603.75	
-0.10739	0.245856	3605.44	
0.249543	0.245557	3608.24	
0.161742	0.245959	3610.48	
-0.00431832	0.244769	3613.29	
-0.0857577	0.243737	3616.09	
0.0376738	0.243419	3618.9	
-0.0393118	0.242253	3621.14	
-0.011317	0.238778	3623.39	
0.0434	0.233355	3625.07	
0.274357	0.229132	3626.19	
0.34498	0.229885	3626.75	
0.525674	0.23434	3627.31	
0.103207	0.231847	3626.75	
0.0605787	0.230976	3626.19	
-0.207917	0.232374	3624.51	
0.482409	0.235907	3622.83	
0.276266	0.232861	3620.58	
-0.276631	0.227904	3617.78	
-0.438237	0.228787	3614.97	
0.278811	0.227298	3611.61	
0.447415	0.227266	3608.24	
0.281992	0.228019	3604.31	
-0.41915	0.221822	3600.95	
0.0612149	0.218725	3597.02	
-0.214915	0.221077	3593.66	
-0.0908476	0.222159	3590.85	
-0.0577629	0.220575	3588.05	
-0.346618	0.220187	3585.24	
-0.471958	0.223928	3583.56	
-0.998133	0.233898	3581.87	
0.00840658	0.231932	3580.75	
0.278811	0.23342	3580.19	
-0.0571266	0.232891	3580.19	
-0.143656	0.232278	3581.31	
-0.199645	0.234251	3582.44	
-0.130931	0.235504	3584.12	
0.105752	0.235786	3586.36	
0.16874	0.234959	3589.17	
0.309987	0.235048	3592.53	
0.398425	0.234036	3595.9	
-0.0393118	0.231839	3599.27	
0.0478538	0.229428	3602.63	
0.194826	0.23051	3606	
0.229184	0.227449	3608.8	
0.137564	0.226484	3611.61	
0.202461	0.22688	3613.85	
0.00331662	0.226172	3615.53	
-0.234639	0.227782	3616.66	
0.302352	0.226961	3617.22	
0.451869	0.223571	3617.78	
0.320803	0.225684	3617.78	
-0.517132	0.225663	3617.22	
-0.181831	0.222709	3616.09	
0.198644	0.217316	3614.97	
0.185919	0.21614	3613.29	
0.0643961	0.215606	3611.05	
0.0580337	0.213011	3608.8	
-0.142383	0.212235	3606.56	
0.577209	0.211187	3604.31	
-0.011317	0.208477	3602.07	
0.0815747	0.205628	3599.83	
-0.201554	0.203611	3597.58	
-0.69019	0.209394	3595.34	
-0.115025	0.209776	3593.09	
0.134383	0.209574	3591.41	
0.382519	0.212044	3589.73	
1.05312	0.222016	3588.61	
-0.970138	0.230597	3587.48	
-0.435056	0.232962	3586.36	
0.56703	0.237284	3585.8	
0.227275	0.238697	3585.24	
-0.201554	0.237022	3585.24	
-0.300172	0.237675	3585.8	
-0.458597	0.241612	3586.92	
-0.671103	0.246473	3588.05	
-0.00177334	0.243303	3589.73	
0.427056	0.246541	3591.97	
-0.484683	0.251573	3594.78	
0.287718	0.253197	3597.58	
0.14329	0.25333	3601.51	
-0.235275	0.253553	3604.87	
-0.382248	0.25683	3609.36	
-0.328803	0.256224	3614.41	
-0.136021	0.251482	3618.9	
0.103843	0.248474	3624.51	
0.00395287	0.243289	3629.56	
0.0503987	0.238243	3634.61	
0.119113	0.235013	3640.22	
0.308078	0.232616	3644.71	
0.338618	0.231491	3649.75	
0.280719	0.22973	3653.68	
-0.192647	0.228159	3657.61	
0.249543	0.227511	3660.97	
0.502133	0.231725	3663.78	
0.362795	0.231256	3665.46	
0.1891	0.230728	3666.58	
0.302988	0.229175	3667.14	
-0.230185	0.230039	3667.14	
-0.338983	0.23278	3666.02	
0.0618511	0.22724	3664.34	
-0.0596716	0.226762	3661.53	
0.0567612	0.224835	3658.73	
0.0643961	0.223861	3654.8	
0.236182	0.22518	3650.31	
-0.182467	0.226147	3645.83	
0.425783	0.229781	3640.78	
0.157288	0.229961	3635.73	
-0.15829	0.231431	3630.68	
-0.0342218	0.232207	3625.63	
0.286446	0.232328	3621.14	
0.393335	0.232811	3616.66	
0.372339	0.231278	3612.73	
-0.802169	0.239268	3609.36	
-0.891244	0.248574	3606.56	
0.356432	0.24906	3604.31	
0.159833	0.245834	3602.07	
-0.410879	0.24818	3600.39	
-0.506952	0.250483	3599.27	
-0.391791	0.250019	3599.27	
-0.0806677	0.249037	3598.7	
-0.103573	0.246599	3599.27	
-0.203463	0.246814	3600.39	
0.152834	0.24315	3601.51	
0.30935	0.245632	3603.19	
0.0612149	0.243095	3604.87	
-0.110571	0.243292	3607.12	
-0.111844	0.243833	3609.36	
-0.0679428	0.241046	3612.17	
0.0160415	0.236166	3614.41	
0.273721	0.227922	3617.22	
0.609658	0.233103	3619.46	
0.597569	0.23629	3621.14	
-0.390519	0.239624	3623.39	
0.0809385	0.237997	3624.51	
0.359614	0.238597	3625.63	
0.249543	0.238783	3626.19	
0.429601	0.242021	3626.19	
0.152198	0.241856	3626.19	
-0.598571	0.245742	3625.07	
-0.313533	0.245893	3623.39	
0.0204952	0.245295	3621.7	
-0.0246782	0.24602	3618.9	
0.188464	0.245956	3616.09	
0.361522	0.24728	3612.73	
-0.1532	0.248436	3609.36	
-0.207917	0.249491	3605.44	
-0.488501	0.254409	3601.51	
0.376792	0.25483	3597.58	
-0.00113709	0.252818	3594.22	
-0.0723965	0.250023	3590.85	
0.0930271	0.247746	3588.05	
0.16874	0.243262	3585.24	
0.213277	0.242576	3583.56	
-0.91224	0.250712	3581.87	
-0.120751	0.251061	3580.75	
0.302988	0.253446	3580.19	
0.0230402	0.253636	3580.19	
-0.292537	0.255137	3580.19	
-0.468777	0.255053	3580.75	
-0.161471	0.256554	3581.31	
-0.300808	0.259747	3581.87	
-0.0953013	0.258684	3583	
0.294717	0.25373	3584.12	
0.252725	0.254107	3585.24	
0.346253	0.256225	3586.36	
-0.0526729	0.253927	3587.48	
0.257815	0.245974	3588.05	
0.206915	0.237341	3588.61	
0.196735	0.233958	3589.73	
0.637016	0.234658	3589.73	
0.49068	0.237292	3589.73	
-0.406425	0.239341	3589.73	
-0.261361	0.238953	3589.17	
0.706367	0.24043	3588.61	
0.180829	0.234528	3587.48	
0.130566	0.234816	3585.8	
0.163014	0.232175	3583.56	
-0.723911	0.234568	3581.31	
-0.430602	0.236996	3579.07	
0.0332201	0.236231	3576.26	
0.308078	0.235959	3573.46	
-0.0444017	0.232581	3570.09	
-0.146837	0.230761	3567.29	
-0.480229	0.234203	3563.92	
-0.487864	0.239043	3561.12	
-0.0151345	0.239234	3557.75	
0.201189	0.240742	3554.95	
0.310623	0.242657	3552.14	
0.121022	0.240787	3549.34	
-0.0106808	0.238507	3547.09	
-0.106117	0.237761	3544.85	
-0.331348	0.239148	3543.17	
0.103843	0.237691	3541.48	
0.177648	0.234447	3540.36	
-0.0704878	0.232523	3539.24	
-0.13284	0.232961	3538.12	
-0.0844852	0.231776	3537.56	
-0.199009	0.231464	3537.56	
-0.171651	0.229791	3537	
0.138201	0.230554	3536.43	
0.278174	0.231739	3536.43	
0.243817	0.23361	3535.87	
0.122294	0.234189	3535.31	
-0.251818	0.235345	3534.75	
0.0879372	0.2334	3533.63	
0.0612149	0.229754	3533.07	
0.595661	0.234138	3531.95	
0.695551	0.238511	3530.26	
0.680281	0.243971	3528.58	
0.19928	0.243099	3526.34	
-0.411515	0.244281	3523.53	
0.199916	0.242557	3520.17	
-0.0367668	0.234903	3516.8	
-0.483411	0.230825	3512.87	
-0.452871	0.232789	3508.38	
-0.395609	0.236147	3503.9	
-0.258816	0.234626	3498.85	
-0.198373	0.23154	3493.8	
0.236182	0.228984	3488.19	
0.637653	0.233554	3483.14	
0.39588	0.235477	3478.09	
0.0586699	0.233029	3473.04	
-0.239729	0.234898	3469.12	
-0.0927563	0.233732	3465.19	
-0.210462	0.236225	3462.38	
-0.348527	0.238604	3459.58	
-0.317987	0.240666	3457.9	
-0.281085	0.242797	3456.21	
-0.0577629	0.243535	3455.09	
-0.289992	0.244698	3453.41	
0.228547	0.240887	3452.85	
0.108297	0.235994	3451.73	
0.0491262	0.231598	3451.16	
-0.113752	0.232926	3450.6	
-0.146201	0.231792	3450.04	
-0.0634891	0.230931	3450.04	
0.0936634	0.227572	3450.04	
0.0408551	0.226641	3450.04	
0.0230402	0.220425	3450.04	
0.166195	0.217952	3450.04	
0.117204	0.218329	3449.48	
0.017314	0.217909	3448.92	
0.0707586	0.216732	3448.36	
0.100026	0.214117	3446.68	
0.0955721	0.212541	3444.99	
-0.0304044	0.210765	3443.31	
0.0618511	0.205499	3440.51	
0.47541	0.206485	3437.7	
0.33989	0.208873	3433.77	
0.0656686	0.207805	3429.85	
0.0631236	0.207506	3424.8	
0.327165	0.209091	3419.75	
0.00204413	0.207937	3413.58	
-0.209825	0.200913	3406.85	
0.0230402	0.199475	3399.55	
-0.0297681	0.197743	3391.7	
-0.312261	0.201096	3382.72	
-0.194556	0.200116	3373.19	
-0.109935	0.196528	3363.09	
-0.0819402	0.195733	3351.87	
0.0389463	0.192335	3340.65	
-0.195828	0.19334	3328.31	
-0.141747	0.192811	3315.97	
-0.00813579	0.191365	3303.06	
-0.00431832	0.188945	3289.6	
-0.00559081	0.188475	3276.14	
0.00268038	0.18687	3262.11	
0.0618511	0.185419	3248.09	
0.0434	0.184018	3233.5	
-0.0304044	0.178951	3218.92	
0.0503987	0.174549	3203.21	
0.0809385	0.170294	3186.94	
0.05358	0.167216	3169.55	
-0.0469467	0.161622	3151.6	
-0.106117	0.161875	3132.52	
-0.042493	0.161994	3111.77	
0.0701223	0.161065	3090.45	
0.198644	0.154812	3067.45	
0.129929	0.150806	3043.33	
0.0344926	0.150793	3017.52	
-0.0380393	0.149093	2990.03	
0.0993896	0.148642	2960.86	
0.0904822	0.147079	2930.01	
0.0370376	0.141906	2896.35	
0.014769	0.13688	2861	
-0.011317	0.136842	2823.42	
-0.0634891	0.136465	2783.03	
-0.162743	0.135986	2739.83	
-0.0227694	0.136003	2693.27	
0.0472175	0.135424	2643.9	
-0.0253144	0.134616	2591.73	
-0.0965738	0.132269	2535.63	
-0.0170432	0.132401	2476.17	
0.113387	0.131758	2413.34	
0.0230402	0.130823	2347.14	
0.0103153	0.129391	2277.58	
0.113387	0.12868	2205.77	
0.107661	0.126767	2131.16	
0.0453088	0.124597	2054.3	
-0.0596716	0.124812	1975.77	
-0.0526729	0.123557	1896.67	
0.0383101	0.121736	1815.88	
-0.0813039	0.122326	1735.1	
-0.0819402	0.120627	1654.32	
-0.0895751	0.121643	1573.54	
0.00649784	0.121966	1493.32	
-0.000500848	0.117015	1413.66	
-0.00113709	0.11107	1334.56	
-0.037403	0.105642	1256.58	
0.0217677	0.104431	1179.72	
-0.00495456	0.100365	1103.99	
0.0262214	0.0991041	1029.38	
-0.0132257	0.0988687	955.89	
0.00395287	0.0939951	883.522	
0.0421276	0.0890451	812.838	
0.0141328	0.0849477	743.275	
-0.0183157	0.0825427	675.396	
0.0160415	0.0803985	608.638	
0.0809385	0.0788461	543.003	
0.0262214	0.0732073	479.05	
0.0109516	0.070139	416.78	
0.0434	0.0701183	355.072	
0.0548525	0.0672696	295.607	
0.0154053	0.066188	236.703	
0.0344926	0.0637384	179.482	
0.0243127	0.06001	123.945	
0.051035	0.0563405	69.5288	
0.012224	0.0534074	16.796	
0.0185865	0.0526439	0	
0.05358	0.0492798	0	
0.0548525	0.0475428	0	
0.0421276	0.0470386	0	
0.0453088	0.0470768	0	
0.00268038	0.0459124	0	
0.0472175	0.0439783	0	
0.0663049	0.0430064	0	
0.0427638	0.0426421	0	
0.00904282	0.0429603	0	
-0.0157707	0.0433484	0	
0.0904822	0.0425912	0	
0.0402188	0.042017	0	
-0.00622705	0.0422524	0	
0.0478538	0.0420663	0	
0.0586699	0.0416527	0	
0.0154053	0.041543	0	
-0.00368207	0.0412757	0	
0.051035	0.0411676	0	
0.0593062	0.0370065	0	
0.0274939	0.0343327	0	
-0.0272231	0.0349482	0	
0.0236765	0.0350802	0	
0.100662	0.0328152	0	
0.0338564	0.0324971	0	
-0.0125895	0.0305247	0	
0.0427638	0.0303275	0	
0.0815747	0.0298456	0	
0.0262214	0.0264607	0	
-0.00431832	0.0245584	0	
0.0128603	0.0233304	0	
0.0440363	0.0220707	0	
-0.00431832	0.0225033	0	
0.0255852	0.0202892	0	
0.00268038	0.0188449	0	
0.00967907	0.0186667	0	
0.00268038	0.0185968	0	
0.0319476	0.0182214	0	
-0.00877203	0.0183359	0	
0.0204952	0.0185124	0	
0.051035	0.0184568	0	
0.00713409	0.0180814	0	
-0.0125895	0.0187033	0	
0.045945	0.0184345	0	
0.0503987	0.0184027	0	
0.0115878	0.0178173	0	
-0.00368207	0.016793	0	
0.0249489	0.0161185	0	
0.0580337	0.0159977	0	
0.0128603	0.0148826	0	
-0.0068633	0.014652	0	
0.012224	0.0148746	0	
0.0478538	0.0140157	0	
0.0332201	0.0136896	0	
0.014769	0.0136371	0	
0.0306751	0.0137007	0	
0.0573974	0.0134224	0	
0.0332201	0.012977	0	
0.019859	0.0121435	0	
0.0134965	0.0103811	0	
0.0529437	0.00968288	0	
0.045945	0.0096956	0	
-0.000500848	0.00944747	0	
-0.016407	0.0086458	0	
0.0421276	0.00805409	0	
0.084756	0.00776778	0	
-0.00240958	0.00802228	0	
-0.00240958	0.00814953	0	
0.04849	0.00753076	0	
0.0752123	0.00720627	0	
0.0274939	0.00738442	0	
-0.00495456	0.00683725	0	
0.0294027	0.0060165	0	
0.0434	0.0059656	0	
0.0300389	0.00485217	0	
-0.0526729	0.0045595	0	
0.019859	0.00346515	0	
0.0268577	0.00326156	0	
-0.000500848	0.00326156	0	
0.0230402	0.00301978	0	
-0.0189519	0.00283527	0	
0.0281302	0.00277165	0	
0.0402188	0.00231991	0	
0.0294027	0.0022881	0	
0.00967907	0.00205905	0	
0.0236765	0.00186182	0	
0.0383101	0.00189999	0	
0.00331662	0.00200815	0	
-0.0068633	0.00189363	0	
0.000771642	0.00204633	0	
0.0249489	0.00198745	0	
0.00268038	0.00222286	0	
-0.0208607	0.00254099	0	
0.0402188	0.0025728	0	
0.0376738	0.00264754	0	
0.0230402	0.00257119	0	
0.0179503	0.00273661	0	
0.0306751	0.00267299	0	
0.0491262	0.00267137	0	
0.0351289	0.00244233	0	
-0.0157707	0.0027859	0	
0.0192227	0.00305787	0	
0.0554887	0.00306423	0	
0.022404	0.00326147	0	
-0.00622705	0.00377683	0	
0.0103153	0.00370048	0	
0.0739398	0.00391205	0	
0.0344926	0.00390408	0	
0.0109516	0.0042222	0	
-0.0437655	0.00475028	0	
0.0809385	0.00440196	0	
0.0338564	0.00415857	0	
-0.016407	0.00472483	0	
-0.0227694	0.00489026	0	
0.0325839	0.00504295	0	
0.0707586	0.00516384	0	
-0.0151345	0.00546924	0	
-0.0157707	0.00559013	0	
0.0357651	0.00572212	0	
0.0688498	0.00581756	0	
0.0115878	0.00597662	0	
0.00204413	0.00568395	0	
0.0103153	0.00581756	0	
0.0491262	0.00531968	0	
0.022404	0.0054342	0	
0.00204413	0.00528787	0	
0.00204413	0.00569506	0	
0.0434	0.00544531	0	
0.0185865	0.00552166	0	
-0.0240419	0.0057189	0	
-0.00749954	0.0059225	0	
0.00967907	0.00626607	0	
0.0160415	0.00606247	0	
0.00777033	0.00624062	0	
-0.00940828	0.00636151	0	
0.0306751	0.00615155	0	
0.0383101	0.00579525	0	
-0.0170432	0.00628516	0	
0.00649784	0.00613246	0	
0.0383101	0.00595431	0	
0.0306751	0.00613721	0	
-0.0106808	0.00631536	0	
-0.0297681	0.00648714	0	
0.0236765	0.00670983	0	
0.0516712	0.00672255	0	
-0.0125895	0.00696433	0	
-0.0132257	0.00705976	0	
0.00458911	0.00726336	0	
0.04849	0.00719813	0	
0.000135397	0.00732537	0	
-0.016407	0.00742081	0	
0.000771642	0.00753534	0	
0.0281302	0.00773257	0	
0.0115878	0.00794889	0	
-0.00177334	0.00811432	0	
-0.0068633	0.0084897	0	
0.0516712	0.00843244	0	
0.019859	0.00856605	0	
-0.0068633	0.00883327	0	
0.00458911	0.00892235	0	
0.0262214	0.0091307	0	
0.0389463	0.00920068	0	
-0.0170432	0.00936611	0	
0.012224	0.0090798	0	
0.0523075	0.00902415	0	
0.0726673	0.00890326	0	
-0.0132257	0.00901142	0	
-0.0157707	0.00914503	0	
0.0319476	0.00931046	0	
0.04849	0.00907344	0	
0.00331662	0.00931521	0	
-0.0348581	0.00961424	0	
-0.0304044	0.0102123	0	
0.0058616	0.0105877	0	
-0.011317	0.0110013	0	
-0.0259506	0.010734	0	
-0.011317	0.0110458	0	
0.0313114	0.0110013	0	
0.0058616	0.0109376	0	
0.0128603	0.0110394	0	
0.012224	0.0107277	0	
0.0332201	0.0106768	0	
0.0497625	0.0105813	0	
0.019859	0.0106768	0	
0.017314	0.0106004	0	
0.0294027	0.0105432	0	
0.0274939	0.0106513	0	
0.00840658	0.0106004	0	
-0.0183157	0.0107149	0	
0.0236765	0.0104859	0	
0.0516712	0.0102521	0	
-0.00940828	0.010373	0	
-0.0367668	0.010532	0	
0.0179503	0.0107547	0	
0.074576	0.0108772	0	
0.0179503	0.0109281	0	
-0.0144982	0.0112526	0	
0.0262214	0.0112972	0	
0.00204413	0.011768	0	
0.00713409	0.0120479	0	
-0.00495456	0.0119398	0	
-0.0132257	0.0122642	0	
0.00522536	0.0126571	0	
0.0103153	0.012778	0	
-0.0170432	0.0128862	0	
-0.0246782	0.0132361	0	
0.0262214	0.0132345	0	
0.019859	0.0133808	0	
0.0192227	0.0132981	0	
0.00522536	0.0128082	0	
0.0192227	0.0128066	0	
0.0414913	0.0127302	0	
0.0414913	0.0121512	0	
-0.0278594	0.0122021	0	
0.0300389	0.0122276	0	
0.0529437	0.0120494	0	
-0.00495456	0.0119476	0	
-0.0208607	0.0119985	0	
0.0103153	0.012253	0	
0.0185865	0.0123787	0	
-0.00877203	0.0125823	0	
-0.00368207	0.0126395	0	
0.0262214	0.0124805	0	
0.0230402	0.0127413	0	
0.00840658	0.0128813	0	
-0.00304583	0.0129322	0	
0.00204413	0.0129322	0	
0.0427638	0.0129386	0	
0.0115878	0.0130086	0	
-0.00940828	0.0128622	0	
-0.0221332	0.0130086	0	
0.0313114	0.0127922	0	
0.0115878	0.0128368	0	
-0.00304583	0.0129449	0	
0.0115878	0.012735	0	
0.0300389	0.0127413	0	
0.0421276	0.0127032	0	
0.0516712	0.0120494	0	
-0.00368207	0.0121512	0	
0.00840658	0.0124503	0	
0.0446725	0.0123103	0	
0.00840658	0.0121194	0	
-0.0354943	0.0121767	0	
0.012224	0.0122912	0	
0.00904282	0.0126841	0	
-0.0304044	0.0128622	0	
-0.0316768	0.0130467	0	
0.0166778	0.0129259	0	
0.0497625	0.0129131	0	
0.00713409	0.0128431	0	
-0.00940828	0.0127732	0	
0.0204952	0.0125759	0	
0.0573974	0.0124312	0	
0.0434	0.0121131	0	
0.0262214	0.0118331	0	
-0.00877203	0.0118522	0	
0.0217677	0.0121178	0	
0.0364014	0.0119524	0	
0.00713409	0.0118124	0	
-0.0106808	0.0119651	0	
0.0287664	0.0119397	0	
0.0351289	0.0119778	0	
-0.0348581	0.012156	0	
-0.0253144	0.0125314	0	
0.0230402	0.0127779	0	
0.0491262	0.01256	0	
-0.00749954	0.0125027	0	
-0.0437655	0.0127827	0	
0.0185865	0.0129163	0	
0.0402188	0.012999	0	
0.00395287	0.0129926	0	
-0.00113709	0.0126554	0	
0.00777033	0.0122737	0	
0.0542162	0.0118744	0	
0.000771642	0.0117536	0	
0.000135397	0.0114927	0	
-0.000500848	0.0113845	0	
0.0408551	0.0112891	0	
0.00713409	0.0112764	0	
0.00204413	0.0113845	0	
-0.00940828	0.0116009	0	
0.0631236	0.0115643	0	
0.0255852	0.0118061	0	
-0.0221332	0.012226	0	
0.00458911	0.0123532	0	
0.0274939	0.0123723	0	
0.0472175	0.0121751	0	
-0.00431832	0.0123023	0	
-0.00240958	0.0121433	0	
0.0141328	0.0122387	0	
0.0434	0.012288	0	
0.00904282	0.0121035	0	
-0.0176795	0.0119126	0	
0.0281302	0.0118108	0	
0.0383101	0.011682	0	
0.000135397	0.0118601	0	
-0.00940828	0.0118092	0	
0.00777033	0.0119937	0	
0.0707586	0.0117217	0	
0.0204952	0.0115881	0	
-0.00813579	0.0116199	0	
-0.0240419	0.0117281	0	
0.0421276	0.0113591	0	
0.0192227	0.01127	0	
-0.016407	0.0112636	0	
-0.0253144	0.01127	0	
0.0211315	0.0113209	0	
0.0262214	0.0112573	0	
-0.013862	0.0115881	0	
-0.00813579	0.0117217	0	
0.0421276	0.0114927	0	
0.0414913	0.0114927	0	
-0.000500848	0.0119126	0	
-0.0195882	0.0118299	0	
0.0128603	0.0120017	0	
0.0376738	0.0120955	0	
0.0243127	0.0118028	0	
-0.0265869	0.0118601	0	
0.00777033	0.0118856	0	
0.0300389	0.011771	0	
0.00904282	0.0115929	0	
-0.0100445	0.0116565	0	
0.00522536	0.0118665	0	
0.04849	0.011612	0	
-0.00177334	0.0117138	0	
-0.0291319	0.0119746	0	
0.0300389	0.0116947	0	
0.0707586	0.0118299	0	
-0.0119533	0.0120653	0	
-0.016407	0.0121353	0	
0.0166778	0.0117472	0	
0.0383101	0.0116772	0	
0.0204952	0.0115881	0	
-0.0100445	0.0116581	0	
-0.0278594	0.0120526	0	
0.0281302	0.0120717	0	
0.0389463	0.0121035	0	
-0.00368207	0.0126236	0	
-0.013862	0.0127254	0	
0.0516712	0.0123262	0	
0.0580337	0.0123532	0	
-0.0119533	0.0125568	0	
-0.00813579	0.0122832	0	
0.0351289	0.0120542	0	
0.084756	0.0119922	0	
0.00713409	0.0116168	0	
-0.045038	0.0117504	0	
0.0236765	0.0116804	0	
0.0465813	0.0117122	0	
-0.0119533	0.0119031	0	
-0.0272231	0.0120813	0	
-0.0144982	0.0124312	0	
0.0268577	0.0125886	0	
-0.00622705	0.0130849	0	
-0.0304044	0.0136512	0	
-0.00240958	0.0135875	0	
0.0204952	0.0136003	0	
0.0185865	0.0137784	0	
0.000771642	0.013842	0	
0.00268038	0.0137084	0	
0.0249489	0.0137466	0	
0.0503987	0.0136019	0	
0.0478538	0.0127748	0	
0.012224	0.0123994	0	
0.0357651	0.0122721	0	
0.0586699	0.0123501	0	
-0.00495456	0.0123246	0	
-0.00559081	0.0119429	0	
0.0154053	0.0119747	0	
0.0185865	0.012191	0	
-0.0208607	0.0124392	0	
-0.0253144	0.0126809	0	
0.000771642	0.0127509	0	
0.0255852	0.0129529	0	
-0.0329493	0.0132901	0	
-0.0227694	0.0135192	0	
0.0185865	0.0133283	0	
0.0255852	0.013481	0	
0.00840658	0.0134683	0	
-0.0125895	0.0136146	0	
-0.0100445	0.013621	0	
0.0306751	0.013683	0	
0.0154053	0.0137848	0	
0.0236765	0.0133267	0	
-0.0221332	0.0135939	0	
0.0211315	0.0136575	0	
0.0294027	0.0138357	0	
-0.0208607	0.0140011	0	
-0.0380393	0.0143574	0	
0.00522536	0.0144465	0	
0.0287664	0.0145928	0	
-0.0170432	0.0148537	0	
-0.0151345	0.0148282	0	
0.0204952	0.0149046	0	
0.0434	0.0148537	0	
-0.00495456	0.0149046	0	
-0.0068633	0.0148791	0	
0.0325839	0.014631	0	
0.0338564	0.0145848	0	
-0.0106808	0.0148966	0	
-0.0151345	0.0149666	0	
0.0103153	0.014623	0	
0.0402188	0.0146421	0	
0.012224	0.0147121	0	
-0.00622705	0.0146103	0	
0.014769	0.0142095	0	
0.05358	0.0139566	0	
0.0300389	0.0139184	0	
-0.0272231	0.014052	0	
0.0217677	0.013753	0	
0.0268577	0.0139057	0	
0.00967907	0.0142238	0	
-0.0144982	0.0143638	0	
-0.0259506	0.0144274	0	
0.000771642	0.0145483	0	
0.0440363	0.0144847	0	
0.00395287	0.0146883	0	
-0.0444017	0.0148664	0	
0.0319476	0.0146246	0	
0.0370376	0.0145546	0	
-0.011317	0.0147582	0	
0.00713409	0.0145865	0	
0.0134965	0.0145037	0	
0.0516712	0.0145054	0	
0.019859	0.014289	0	
-0.0119533	0.0141172	0	
-0.0068633	0.0144863	0	
0.0688498	0.0144672	0	
0.0211315	0.0141363	0	
-0.0068633	0.0140409	0	
-0.0234057	0.0144417	0	
0.0134965	0.0146899	0	
0.0230402	0.0146644	0	
-0.0068633	0.0146326	0	
-0.0202244	0.0145563	0	
0.0294027	0.0145435	0	
0.0185865	0.0147471	0	
-0.0195882	0.0149062	0	
-0.0068633	0.0148362	0	
0.0446725	0.0148728	0	
0.0828472	0.0151209	0	
-0.0405843	0.0154072	0	
-0.0144982	0.0154708	0	
0.00140789	0.015808	0	
0.0472175	0.0154883	0	
0.00140789	0.0155456	0	
-0.0195882	0.0152911	0	
-0.00177334	0.0155456	0	
0.0389463	0.0156219	0	
-0.00113709	0.0155138	0	
-0.00877203	0.0153292	0	
-0.00177334	0.015202	0	
0.0465813	0.0150048	0	
0.0211315	0.0147312	0	
-0.00431832	0.0144703	0	
-0.00368207	0.014483	0	
0.0542162	0.0142302	0	
0.0389463	0.0140266	0	
-0.0189519	0.0142238	0	
-0.0106808	0.0143574	0	
0.04849	0.014122	0	
0.0364014	0.014254	0	
-0.00177334	0.0147503	0	
-0.0170432	0.0150429	0	
0.00268038	0.0153738	0	
0.0262214	0.0155249	0	
0.0154053	0.0153213	0	
-0.00113709	0.0152767	0	
0.0211315	0.0152195	0	
0.0319476	0.0150859	0	
0.00713409	0.0148059	0	
-0.0253144	0.0148059	0	
0.0185865	0.0146278	0	
0.051035	0.014394	0	
-0.0151345	0.0142158	0	
-0.0221332	0.0142095	0	
0.0134965	0.0142604	0	
0.0313114	0.0142031	0	
-0.00559081	0.0143431	0	
0.0103153	0.014114	0	
-0.011317	0.0141267	0	
0.0319476	0.014114	0	
0.0306751	0.0139613	0	
0.00140789	0.014184	0	
-0.00622705	0.0140249	0	
0.0249489	0.0139868	0	
0.0217677	0.0140631	0	
0.00140789	0.0138404	0	
-0.00813579	0.0135414	0	
0.0154053	0.0134396	0	
0.00967907	0.0136305	0	
-0.0157707	0.0136177	0	
0.00395287	0.0134269	0	
0.00904282	0.0135414	0	
0.0287664	0.0136877	0	
-0.00177334	0.0136559	0	
-0.0119533	0.0137068	0	
0.00840658	0.0139486	0	
0.0503987	0.0137911	0	
0.0103153	0.0135812	0	
0.00140789	0.0134158	0	
0.0338564	0.0131804	0	
0.0694861	0.0132774	0	
0.0243127	0.0131565	0	
0.0115878	0.0129784	0	
0.0370376	0.0127557	0	
0.0351289	0.0128686	0	
0.0211315	0.0129577	0	
-0.011317	0.0127986	0	
-0.00813579	0.0130976	0	
-0.00368207	0.013403	0	
0.019859	0.0133012	0	
-0.0240419	0.0133967	0	
-0.0342218	0.0134794	0	
0.0185865	0.0133012	0	
0.0287664	0.0134539	0	
-0.00113709	0.0135048	0	
-0.0221332	0.0132822	0	
0.0154053	0.0134476	0	
0.0408551	0.0134094	0	
0.0166778	0.0131295	0	
-0.0234057	0.0134349	0	
0.00649784	0.0135048	0	
0.0313114	0.013675	0	
-0.00113709	0.013885	0	
-0.0246782	0.0140122	0	
-0.000500848	0.0139486	0	
0.0370376	0.0138897	0	
0.0141328	0.0139597	0	
-0.0412205	0.0143033	0	
0.0058616	0.0140106	0	
0.0453088	0.0136925	0	
0.0166778	0.0137561	0	
-0.0132257	0.0138197	0	
-0.00559081	0.0136734	0	
0.0573974	0.0135414	0	
0.0338564	0.0133887	0	
-0.00177334	0.0132106	0	
-0.0176795	0.0133187	0	
0.0185865	0.0135796	0	
0.0446725	0.0133044	0	
0.00458911	0.0128526	0	
-0.0246782	0.0129544	0	
0.0128603	0.0128399	0	
0.0364014	0.0129481	0	
-0.0183157	0.0131453	0	
-0.039948	0.0133489	0	
0.0166778	0.0131644	0	
0.0294027	0.0132598	0	
-0.0170432	0.0134189	0	
-0.0335856	0.013667	0	
-0.0132257	0.0137816	0	
0.019859	0.0140488	0	
-0.0132257	0.0143924	0	
0.0103153	0.014246	0	
0.000771642	0.0142015	0	
0.0300389	0.0143589	0	
0.00458911	0.0147025	0	
0.00268038	0.0144862	0	
-0.00877203	0.0144671	0	
0.0217677	0.0147343	0	
0.0300389	0.0147979	0	
-0.013862	0.0149188	0	
-0.0183157	0.0149316	0	
0.00777033	0.0148807	0	
0.0262214	0.0148807	0	
0.014769	0.014887	0	
